Time,Channel A,Channel B
(ns),(V),(V)

-103.40957950,-0.03783219,0.00000000
-102.90957952,-0.02891240,0.00000000
-102.40957953,-0.01537894,0.00000000
-101.90957955,-0.00384473,0.00000000
-101.40957956,0.00230684,0.00000000
-100.90957958,0.00322958,0.00000000
-100.40957959,0.00153789,0.00000000
-99.90957960,0.00030758,0.00000000
-99.40957962,0.00000000,0.00000000
-98.90957963,0.00000000,0.00000000
-98.40957965,0.00000000,0.00000000
-97.90957966,0.00000000,0.00000000
-97.40957967,0.00000000,0.00000000
-96.90957969,0.00000000,0.00000000
-96.40957970,0.00000000,0.00000000
-95.90957972,0.00000000,0.00000000
-95.40957973,0.00000000,0.00000000
-94.90957974,0.00000000,0.00000000
-94.40957976,0.00000000,0.00000000
-93.90957977,0.00000000,0.00000000
-93.40957979,0.00000000,0.00000000
-92.90957980,0.00000000,0.00000000
-92.40957982,0.00000000,0.00000000
-91.90957983,0.00000000,0.00000000
-91.40957984,0.00000000,0.00000000
-90.90957986,0.00000000,0.00000000
-90.40957987,0.00000000,0.00000000
-89.90957989,0.00000000,0.00000000
-89.40957990,0.00000000,0.00000000
-88.90957991,0.00000000,0.00000000
-88.40957993,0.00000000,0.00000000
-87.90957994,0.00000000,0.00000000
-87.40957996,0.00000000,0.00000000
-86.90957997,0.00000000,0.00000000
-86.40957999,0.00000000,0.00000000
-85.90958000,0.00000000,0.00000000
-85.40958001,0.00000000,0.00000000
-84.90958003,0.00000000,0.00000000
-84.40958004,0.00000000,0.00000000
-83.90958006,0.00000000,0.00000000
-83.40958007,0.00000000,0.00000000
-82.90958008,0.00000000,0.00000000
-82.40958010,0.00000000,0.00000000
-81.90958011,0.00000000,0.00000000
-81.40958013,0.00000000,0.00000000
-80.90958014,0.00000000,0.00000000
-80.40958015,0.00000000,0.00000000
-79.90958017,0.00000000,0.00000000
-79.40958018,0.00000000,0.00000000
-78.90958020,0.00000000,0.00000000
-78.40958021,0.00000000,0.00000000
-77.90958023,0.00000000,0.00000000
-77.40958024,0.00000000,0.00000000
-76.90958025,0.00000000,0.00000000
-76.40958027,0.00000000,0.00000000
-75.90958028,0.00000000,0.00000000
-75.40958030,0.00000000,0.00000000
-74.90958031,0.00000000,0.00000000
-74.40958032,0.00000000,0.00000000
-73.90958034,0.00000000,0.00000000
-73.40958035,0.00000000,0.00000000
-72.90958037,0.00000000,0.00000000
-72.40958038,0.00000000,0.00000000
-71.90958040,0.00000000,0.00000000
-71.40958041,0.00030758,0.00000000
-70.90958042,0.00153789,0.00000000
-70.40958044,0.00322958,0.00000000
-69.90958045,0.00230684,0.00000000
-69.40958047,-0.00353716,0.00000000
-68.90958048,-0.01384104,0.00000000
-68.40958049,-0.02568282,0.00000000
-67.90958051,-0.03552534,0.00000000
-67.40958052,-0.04167692,0.00000000
-66.90958054,-0.04429134,0.00000000
-66.40958055,-0.04429134,0.00000000
-65.90958056,-0.04167692,0.00000000
-65.40958058,-0.03583292,0.00000000
-64.90958059,-0.02722072,0.00000000
-64.40958061,-0.01707062,0.00000000
-63.90958062,-0.00584400,0.00000000
-63.40958064,0.00599779,0.00000000
-62.90958065,0.01860851,0.00000000
-62.40958066,0.03045030,0.00000000
-61.90958068,0.03813976,0.00000000
-61.40958069,0.03783219,0.00000000
-60.90958071,0.02891240,0.00000000
-60.40958072,0.01537894,0.00000000
-59.90958073,0.00384473,0.00000000
-59.40958075,-0.00230684,0.00000000
-58.90958076,-0.00322958,0.00000000
-58.40958078,-0.00153789,0.00000000
-57.90958079,-0.00030758,0.00000000
-57.40958081,0.00000000,0.00030758
-56.90958082,0.00000000,0.00153789
-56.40958083,0.00000000,0.00322958
-55.90958085,0.00000000,0.00230684
-55.40958086,0.00000000,-0.00384473
-54.90958088,0.00000000,-0.01537894
-54.40958089,0.00000000,-0.02891240
-53.90958090,0.00000000,-0.03783219
-53.40958092,-0.00030758,-0.03783219
-52.90958093,-0.00153789,-0.02891240
-52.40958095,-0.00322958,-0.01537894
-51.90958096,-0.00230684,-0.00384473
-51.40958098,0.00384473,0.00230684
-50.90958099,0.01537894,0.00322958
-50.40958100,0.02891240,0.00153789
-49.90958102,0.03783219,0.00030758
-49.40958103,0.03783219,0.00000000
-48.90958105,0.02891240,0.00000000
-48.40958106,0.01537894,0.00000000
-47.90958107,0.00384473,0.00000000
-47.40958109,-0.00230684,0.00000000
-46.90958110,-0.00322958,0.00000000
-46.40958112,-0.00153789,0.00000000
-45.90958113,-0.00030758,0.00000000
-45.40958114,0.00000000,0.00000000
-44.90958116,0.00000000,0.00000000
-44.40958117,0.00000000,0.00000000
-43.90958119,0.00000000,0.00000000
-43.40958120,0.00000000,0.00000000
-42.90958122,0.00000000,0.00000000
-42.40958123,0.00000000,0.00000000
-41.90958124,0.00000000,0.00000000
-41.40958126,0.00000000,0.00000000
-40.90958127,0.00000000,0.00000000
-40.40958129,0.00000000,0.00000000
-39.90958130,0.00000000,0.00000000
-39.40958131,0.00000000,0.00000000
-38.90958133,0.00000000,0.00000000
-38.40958134,0.00000000,0.00000000
-37.90958136,0.00000000,0.00000000
-37.40958137,0.00000000,0.00000000
-36.90958139,0.00000000,0.00000000
-36.40958140,0.00000000,0.00000000
-35.90958141,0.00000000,0.00000000
-35.40958143,0.00000000,0.00000000
-34.90958144,0.00000000,0.00000000
-34.40958146,0.00000000,0.00000000
-33.90958147,0.00000000,0.00000000
-33.40958148,0.00000000,0.00000000
-32.90958150,0.00000000,0.00000000
-32.40958151,0.00000000,0.00000000
-31.90958153,0.00000000,0.00000000
-31.40958154,0.00000000,0.00000000
-30.90958155,0.00000000,0.00000000
-30.40958157,0.00000000,0.00000000
-29.90958158,0.00000000,0.00000000
-29.40958160,-0.00030758,0.00000000
-28.90958161,-0.00153789,0.00000000
-28.40958163,-0.00322958,0.00000000
-27.90958164,-0.00230684,0.00000000
-27.40958165,0.00384473,0.00000000
-26.90958167,0.01537894,0.00000000
-26.40958168,0.02891240,0.00000000
-25.90958170,0.03783219,0.00000000
-25.40958171,0.03783219,0.00000000
-24.90958172,0.02891240,0.00000000
-24.40958174,0.01537894,0.00000000
-23.90958175,0.00369095,0.00000000
-23.40958177,-0.00199926,0.00000000
-22.90958178,-0.00153789,0.00000000
-22.40958180,0.00153789,0.00000000
-21.90958181,0.00199926,0.00000000
-21.40958182,-0.00353716,0.00000000
-20.90958184,-0.01384104,0.00000000
-20.40958185,-0.02568282,0.00000000
-19.90958187,-0.03552534,0.00000000
-19.40958188,-0.04167692,0.00000000
-18.90958189,-0.04429134,0.00000000
-18.40958191,-0.04429134,0.00000000
-17.90958192,-0.04167692,0.00000000
-17.40958194,-0.03552534,0.00000000
-16.90958195,-0.02568282,0.00000000
-16.40958196,-0.01384104,0.00000000
-15.90958198,-0.00353716,0.00000000
-15.40958199,0.00230684,0.00000000
-14.90958201,0.00322958,0.00000000
-14.40958202,0.00153789,0.00000000
-13.90958204,0.00030758,0.00000000
-13.40958205,0.00000000,0.00000000
-12.90958206,0.00000000,0.00000000
-12.40958208,0.00000000,0.00000000
-11.90958209,0.00000000,0.00000000
-11.40958211,0.00000000,0.00000000
-10.90958212,0.00000000,0.00000000
-10.40958213,0.00000000,0.00000000
-9.90958215,0.00000000,0.00000000
-9.40958216,0.00030758,0.00000000
-8.90958218,0.00153789,0.00000000
-8.40958219,0.00322958,0.00000000
-7.90958221,0.00230684,0.00000000
-7.40958222,-0.00384473,0.00000000
-6.90958223,-0.01537894,0.00000000
-6.40958225,-0.02891240,0.00000000
-5.90958226,-0.03675566,0.00000000
-5.40958228,-0.04290723,0.00000000
-4.90958229,-0.05936269,0.00000000
-4.40958230,-0.07551058,0.00000000
-3.90958232,-0.04352239,0.00000000
-3.40958233,0.05767101,0.00000000
-2.90958235,0.19392840,0.00000000
-2.40958236,0.34756400,0.00000000
-1.90958237,0.57901700,0.00015379
-1.40958239,0.93903790,-0.00046137
-0.90958240,1.38595000,-0.00322958
-0.40958242,1.84301200,-0.00630536
0.09041757,2.28730900,-0.00445989
0.59041755,2.71592000,0.00676673
1.09041754,3.09239600,0.02614419
1.59041753,3.38259700,0.04828986
2.09041751,3.59682600,0.06889763
2.59041750,3.74277200,0.08689099
3.09041748,3.79183100,0.10242370
3.59041747,3.73154500,0.11426550
4.09041746,3.61712600,0.11887920
4.59041744,3.51254900,0.11365030
5.09041743,3.41197100,0.10042450
5.59041741,3.26787000,0.08150837
6.09041740,3.09193500,0.05567175
6.59041738,2.95029500,0.01968504
7.09041737,2.85725300,-0.02691314
7.59041736,2.75805900,-0.07597195
8.09041734,2.63641100,-0.11057460
8.59041733,2.54198500,-0.11626480
9.09041731,2.48815800,-0.09288878
9.59041730,2.43110200,-0.05428765
10.09041729,2.36666500,-0.01630167
10.59041727,2.34513400,0.01460999
11.09041726,2.37112500,0.04044660
11.59041724,2.39480800,0.06243848
12.09041723,2.40911100,0.07658711
12.59041721,2.45540100,0.07581816
13.09041720,2.53091100,0.05936269
13.59041719,2.58950500,0.03398745
14.09041717,2.63195100,0.00984252
14.59041716,2.70038700,-0.00815084
15.09041714,2.78866300,-0.02014641
15.59041713,2.84894800,-0.02891240
16.09041712,2.87909100,-0.03614050
16.59041710,2.91861500,-0.04152313
17.09041709,2.96306000,-0.04429134
17.59041707,2.97028800,-0.04429134
18.09041706,2.94506600,-0.04167692
18.59041705,2.93245600,-0.03583292
19.09041703,2.93153300,-0.02722072
19.59041702,2.89908400,-0.01707062
20.09041700,2.84033600,-0.00584400
20.59041699,2.80604100,0.00584400
21.09041697,2.79865900,0.01707062
21.59041696,2.77082300,0.02722072
22.09041695,2.71961100,0.03583292
22.59041693,2.69100600,0.04167692
23.09041692,2.68746900,0.04429134
23.59041690,2.66532400,0.04429134
24.09041689,2.62887500,0.04167692
24.59041688,2.62887500,0.03552534
25.09041686,2.66532400,0.02568282
25.59041685,2.68746900,0.01384104
26.09041683,2.69100600,0.00353716
26.59041682,2.72022600,-0.00199926
27.09041680,2.77405300,-0.00153789
27.59041679,2.80496400,0.00153789
28.09041678,2.81050100,0.00199926
28.59041676,2.83326100,-0.00369095
29.09041675,2.87140100,-0.01537894
29.59041673,2.88016700,-0.02891240
30.09041672,2.86140500,-0.03783219
30.59041671,2.86109700,-0.03813976
31.09041669,2.87847500,-0.03045030
31.59041668,2.86817200,-0.01860851
32.09041666,2.83110900,-0.00615158
32.59041665,2.81373000,0.00615158
33.09041664,2.81726700,0.01860851
33.59041662,2.79666000,0.03045030
34.09041661,2.75359900,0.03813976
34.59041659,2.73591300,0.03813976
35.09041658,2.74406400,0.03045030
35.59041656,2.73222200,0.01860851
36.09041655,2.70377100,0.00599779
36.59041654,2.71053800,-0.00553642
37.09041652,2.75390600,-0.01537894
37.59041651,2.78081900,-0.02414493
38.09041649,2.77851200,-0.03367987
38.59041648,2.78435700,-0.04521408
39.09041647,2.79773600,-0.05813238
39.59041645,2.78128100,-0.06997416
40.09041644,2.74621700,-0.07720226
40.59041642,2.74590900,-0.07750984
41.09041641,2.77958900,-0.07166585
41.59041639,2.79466000,-0.06136196
42.09041638,2.78205000,-0.04752092
42.59041637,2.78205000,-0.02983514
43.09041635,2.79466000,-0.00876599
43.59041634,2.77958900,0.01337967
44.09041632,2.74590900,0.03229577
44.59041631,2.74590900,0.04382997
45.09041630,2.77958900,0.04752092
45.59041628,2.79466000,0.04582923
46.09041627,2.78205000,0.04198450
46.59041625,2.78205000,0.03583292
47.09041624,2.79466000,0.02722072
47.59041623,2.77958900,0.01707062
48.09041621,2.74590900,0.00584400
48.59041620,2.74590900,-0.00584400
49.09041618,2.77958900,-0.01707062
49.59041617,2.79466000,-0.02722072
50.09041615,2.78205000,-0.03583292
50.59041614,2.78205000,-0.04167692
51.09041613,2.79466000,-0.04429134
51.59041611,2.77958900,-0.04429134
52.09041610,2.74590900,-0.04167692
52.59041608,2.74590900,-0.03583292
53.09041607,2.77958900,-0.02722072
53.59041606,2.79466000,-0.01707062
54.09041604,2.78205000,-0.00584400
54.59041603,2.78205000,0.00599779
55.09041601,2.79466000,0.01860851
55.59041600,2.77958900,0.03045030
56.09041598,2.74606300,0.03813976
56.59041597,2.74575500,0.03783219
57.09041596,2.77805100,0.02891240
57.59041594,2.79143100,0.01537894
58.09041593,2.77989600,0.00369095
58.59041591,2.78589500,-0.00199926
59.09041590,2.81003900,-0.00153789
59.59041589,2.80850100,0.00153789
60.09041587,2.78389500,0.00199926
60.59041586,2.78358700,-0.00369095
61.09041584,2.80696400,-0.01537894
61.59041583,2.80696400,-0.02891240
62.09041581,2.78358700,-0.03783219
62.59041580,2.78358700,-0.03783219
63.09041579,2.80696400,-0.02891240
63.59041577,2.80696400,-0.01537894
64.09041576,2.78358700,-0.00369095
64.59041574,2.78358700,0.00199926
65.09041573,2.80696400,0.00153789
65.59041572,2.80696400,-0.00153789
66.09041570,2.78358700,-0.00199926
66.59041569,2.78358700,0.00369095
67.09041567,2.80696400,0.01537894
67.59041566,2.80696400,0.02891240
68.09041565,2.78358700,0.03783219
68.59041563,2.78358700,0.03783219
69.09041562,2.80696400,0.02891240
69.59041560,2.80696400,0.01537894
70.09041559,2.78358700,0.00384473
70.59041557,2.78358700,-0.00230684
71.09041556,2.80696400,-0.00322958
71.59041555,2.80696400,-0.00153789
72.09041553,2.78358700,-0.00030758
72.59041552,2.78389500,0.00000000
73.09041550,2.80850100,0.00000000
73.59041549,2.81003900,0.00000000
74.09041548,2.78589500,0.00000000
74.59041546,2.77989600,0.00000000
75.09041545,2.79143100,0.00000000
75.59041543,2.77805100,0.00000000
76.09041542,2.74560200,0.00000000
76.59041540,2.74637000,0.00000000
77.09041539,2.78128100,0.00000000
77.59041538,2.79773600,0.00000000
78.09041536,2.78435700,0.00000000
78.59041535,2.77835900,0.00030758
79.09041533,2.77912800,0.00153789
79.59041532,2.75083000,0.00322958
80.09041531,2.70807700,0.00230684
80.59041529,2.70777000,-0.00384473
81.09041528,2.74913900,-0.01537894
81.59041526,2.77605200,-0.02891240
82.09041525,2.77605200,-0.03783219
82.59041524,2.78820100,-0.03783219
83.09041522,2.81326900,-0.02891240
83.59041521,2.81003900,-0.01537894
84.09041519,2.78420300,-0.00384473
84.59041518,2.78358700,0.00230684
85.09041516,2.80696400,0.00322958
85.59041515,2.80696400,0.00153789
86.09041514,2.78358700,0.00030758
86.59041512,2.78389500,0.00000000
87.09041511,2.80850100,0.00000000
87.59041509,2.81003900,0.00000000
88.09041508,2.78589500,0.00000000
88.59041507,2.77989600,0.00000000
89.09041505,2.79143100,0.00000000
89.59041504,2.77805100,0.00000000
90.09041502,2.74575500,0.00000000
90.59041501,2.74606300,0.00000000
91.09041499,2.77958900,0.00000000
91.59041498,2.79466000,0.00000000
92.09041497,2.78205000,0.00000000
92.59041495,2.78235700,0.00000000
93.09041494,2.79619800,0.00000000
93.59041492,2.78281900,0.00000000
94.09041491,2.74837000,0.00000000
94.59041490,2.74191100,0.00000000
95.09041488,2.76267200,0.00000000
95.59041487,2.76267200,0.00000000
96.09041485,2.74191100,0.00000000
96.59041484,2.74837000,0.00000000
97.09041483,2.78281900,0.00000000
97.59041481,2.79619800,0.00000000
98.09041480,2.78235700,0.00000000
98.59041478,2.78205000,0.00000000
99.09041477,2.79466000,0.00000000
99.59041475,2.77958900,0.00000000
100.09041474,2.74590900,0.00000000
100.59041473,2.74590900,0.00000000
101.09041471,2.77958900,0.00000000
101.59041470,2.79466000,0.00000000
102.09041468,2.78205000,0.00000000
102.59041467,2.78235700,0.00000000
103.09041466,2.79619800,0.00000000
103.59041464,2.78281900,0.00000000
104.09041463,2.74821600,0.00000000
104.59041461,2.74221800,0.00000000
105.09041460,2.76421000,0.00000000
105.59041458,2.76574800,0.00000000
106.09041457,2.74421700,0.00000000
106.59041456,2.74421700,0.00030758
107.09041454,2.76574800,0.00153789
107.59041453,2.76421000,0.00322958
108.09041451,2.74221800,0.00230684
108.59041450,2.74821600,-0.00384473
109.09041449,2.78281900,-0.01537894
109.59041447,2.79619800,-0.02891240
110.09041446,2.78235700,-0.03783219
110.59041444,2.78205000,-0.03783219
111.09041443,2.79466000,-0.02891240
111.59041442,2.77958900,-0.01537894
112.09041440,2.74590900,-0.00384473
112.59041439,2.74590900,0.00230684
113.09041437,2.77958900,0.00322958
113.59041436,2.79466000,0.00153789
114.09041434,2.78205000,0.00030758
114.59041433,2.78205000,0.00000000
115.09041432,2.79466000,0.00000000
115.59041430,2.77958900,0.00000000
116.09041429,2.74590900,0.00000000
116.59041427,2.74590900,0.00000000
117.09041426,2.77958900,0.00000000
117.59041425,2.79466000,0.00000000
118.09041423,2.78205000,0.00000000
118.59041422,2.78235700,0.00000000
119.09041420,2.79619800,0.00000000
119.59041419,2.78281900,0.00000000
120.09041417,2.74821600,0.00000000
120.59041416,2.74221800,0.00000000
121.09041415,2.76421000,0.00000000
121.59041413,2.76574800,0.00000000
122.09041412,2.74421700,0.00000000
122.59041410,2.74421700,0.00000000
123.09041409,2.76574800,0.00000000
123.59041408,2.76421000,0.00000000
124.09041406,2.74221800,0.00000000
124.59041405,2.74821600,0.00000000
125.09041403,2.78281900,0.00000000
125.59041402,2.79619800,0.00000000
126.09041400,2.78235700,0.00000000
126.59041399,2.78205000,0.00000000
127.09041398,2.79466000,0.00000000
127.59041396,2.77958900,0.00000000
128.09041395,2.74590900,0.00000000
128.59041393,2.74590900,0.00000000
129.09041392,2.77958900,0.00000000
129.59041391,2.79466000,0.00000000
130.09041389,2.78205000,0.00000000
130.59041388,2.78235700,0.00000000
131.09041386,2.79619800,0.00000000
131.59041385,2.78281900,0.00000000
132.09041384,2.74821600,0.00000000
132.59041382,2.74221800,0.00000000
133.09041381,2.76421000,0.00000000
133.59041379,2.76574800,0.00000000
134.09041378,2.74421700,0.00000000
134.59041376,2.74421700,0.00000000
135.09041375,2.76574800,0.00000000
135.59041374,2.76421000,0.00000000
136.09041372,2.74221800,0.00000000
136.59041371,2.74806200,0.00000000
137.09041369,2.78128100,0.00000000
137.59041368,2.79312300,0.00000000
138.09041367,2.78005000,0.00000000
138.59041365,2.78589500,0.00000000
139.09041364,2.81003900,0.00000000
139.59041362,2.80850100,0.00000000
140.09041361,2.78389500,0.00000000
140.59041359,2.78389500,0.00000000
141.09041358,2.80850100,0.00000000
141.59041357,2.81003900,0.00000000
142.09041355,2.78589500,0.00000000
142.59041354,2.77989600,0.00000000
143.09041352,2.79143100,0.00000000
143.59041351,2.77805100,0.00000000
144.09041350,2.74575500,0.00000000
144.59041348,2.74575500,0.00000000
145.09041347,2.77805100,0.00000000
145.59041345,2.79143100,0.00000000
146.09041344,2.77989600,0.00000000
146.59041343,2.78589500,0.00000000
147.09041341,2.81003900,0.00000000
147.59041340,2.80850100,0.00000000
148.09041338,2.78389500,0.00000000
148.59041337,2.78389500,0.00000000
149.09041335,2.80850100,0.00000000
149.59041334,2.81003900,0.00000000
150.09041333,2.78589500,0.00000000
150.59041331,2.77989600,0.00000000
151.09041330,2.79143100,0.00000000
151.59041328,2.77805100,0.00000000
152.09041327,2.74575500,0.00000000
152.59041326,2.74575500,0.00000000
153.09041324,2.77805100,0.00000000
153.59041323,2.79143100,0.00000000
154.09041321,2.77989600,0.00000000
154.59041320,2.78589500,0.00000000
155.09041318,2.81003900,0.00000000
155.59041317,2.80850100,0.00000000
156.09041316,2.78389500,0.00000000
156.59041314,2.78358700,0.00000000
157.09041313,2.80696400,0.00000000
157.59041311,2.80696400,0.00000000
158.09041310,2.78358700,0.00000000
158.59041309,2.78358700,0.00000000
159.09041307,2.80696400,0.00000000
159.59041306,2.80696400,0.00000000
160.09041304,2.78358700,0.00000000
160.59041303,2.78389500,0.00000000
161.09041302,2.80850100,0.00000000
161.59041300,2.81003900,0.00000000
162.09041299,2.78589500,0.00000000
162.59041297,2.77989600,0.00000000
163.09041296,2.79143100,0.00000000
163.59041294,2.77805100,0.00000000
164.09041293,2.74575500,0.00000000
164.59041292,2.74606300,0.00000000
165.09041290,2.77958900,0.00000000
165.59041289,2.79466000,0.00000000
166.09041287,2.78205000,0.00000000
166.59041286,2.78205000,0.00000000
167.09041285,2.79466000,0.00000000
167.59041283,2.77958900,0.00000000
168.09041282,2.74590900,0.00000000
168.59041280,2.74590900,0.00000000
169.09041279,2.77958900,0.00000000
169.59041277,2.79466000,0.00000000
170.09041276,2.78205000,0.00000000
170.59041275,2.78205000,0.00000000
171.09041273,2.79466000,0.00000000
171.59041272,2.77958900,0.00000000
172.09041270,2.74606300,0.00000000
172.59041269,2.74575500,0.00000000
173.09041268,2.77805100,0.00000000
173.59041266,2.79143100,0.00000000
174.09041265,2.77989600,0.00000000
174.59041263,2.78589500,0.00000000
175.09041262,2.81003900,0.00000000
175.59041260,2.80850100,0.00000000
176.09041259,2.78389500,0.00000000
176.59041258,2.78389500,0.00000000
177.09041256,2.80850100,0.00000000
177.59041255,2.81003900,0.00000000
178.09041253,2.78589500,0.00000000
178.59041252,2.77989600,0.00000000
179.09041251,2.79143100,0.00000000
179.59041249,2.77805100,0.00000000
180.09041248,2.74575500,0.00000000
180.59041246,2.74606300,0.00000000
181.09041245,2.77958900,0.00000000
181.59041244,2.79466000,0.00000000
182.09041242,2.78205000,0.00000000
