Time,Channel A,Channel B
(ns),(V),(V)

-51.68967931,0.00138410,0.00000000
-51.43967931,0.00307579,0.00000000
-51.18967932,0.00353716,0.00000000
-50.93967933,0.00307579,0.00000000
-50.68967934,0.00230684,0.00000000
-50.43967934,0.00123032,0.00000000
-50.18967935,0.00046137,0.00000000
-49.93967936,0.00000000,0.00000000
-49.68967936,0.00000000,0.00000000
-49.43967937,0.00046137,0.00000000
-49.18967938,0.00123032,0.00000000
-48.93967939,0.00230684,0.00000000
-48.68967939,0.00307579,0.00000000
-48.43967940,0.00353716,0.00000000
-48.18967941,0.00307579,0.00000000
-47.93967941,0.00138410,0.00000000
-47.68967942,-0.00169168,0.00000000
-47.43967943,-0.00645915,0.00000000
-47.18967943,-0.01230315,0.00000000
-46.93967944,-0.01906988,0.00000000
-46.68967945,-0.02583661,0.00000000
-46.43967946,-0.03183440,0.00000000
-46.18967946,-0.03644808,0.00000000
-45.93967947,-0.03890871,0.00000000
-45.68967948,-0.03890871,0.00000000
-45.43967948,-0.03644808,0.00000000
-45.18967949,-0.03183440,0.00000000
-44.93967950,-0.02583661,0.00000000
-44.68967951,-0.01906988,0.00000000
-44.43967951,-0.01230315,0.00000000
-44.18967952,-0.00645915,0.00000000
-43.93967953,-0.00169168,0.00000000
-43.68967953,0.00138410,0.00000000
-43.43967954,0.00307579,0.00000000
-43.18967955,0.00353716,0.00000000
-42.93967955,0.00307579,0.00000000
-42.68967956,0.00230684,0.00000000
-42.43967957,0.00138410,0.00000000
-42.18967958,0.00061516,0.00000000
-41.93967958,0.00015379,0.00000000
-41.68967959,0.00000000,0.00000000
-41.43967960,-0.00015379,0.00000000
-41.18967960,0.00000000,0.00000000
-40.93967961,0.00000000,0.00000000
-40.68967962,0.00000000,0.00000000
-40.43967963,0.00000000,0.00000000
-40.18967963,0.00000000,0.00000000
-39.93967964,0.00000000,0.00000000
-39.68967965,0.00000000,0.00000000
-39.43967965,0.00000000,0.00000000
-39.18967966,0.00000000,0.00000000
-38.93967967,0.00000000,0.00000000
-38.68967967,0.00000000,0.00000000
-38.43967968,0.00000000,0.00000000
-38.18967969,0.00000000,0.00000000
-37.93967970,0.00000000,0.00000000
-37.68967970,0.00000000,0.00000000
-37.43967971,0.00000000,0.00000000
-37.18967972,0.00000000,0.00000000
-36.93967972,0.00000000,0.00000000
-36.68967973,0.00000000,0.00000000
-36.43967974,0.00000000,0.00000000
-36.18967975,0.00000000,0.00000000
-35.93967975,0.00000000,0.00000000
-35.68967976,0.00000000,0.00000000
-35.43967977,0.00000000,0.00000000
-35.18967977,0.00000000,0.00000000
-34.93967978,0.00000000,0.00000000
-34.68967979,0.00000000,0.00000000
-34.43967980,0.00000000,0.00000000
-34.18967980,-0.00015379,0.00000000
-33.93967981,0.00000000,0.00000000
-33.68967982,0.00015379,0.00000000
-33.43967982,0.00061516,0.00000000
-33.18967983,0.00138410,0.00000000
-32.93967984,0.00230684,0.00000000
-32.68967984,0.00307579,0.00000000
-32.43967985,0.00353716,0.00000000
-32.18967986,0.00307579,0.00000000
-31.93967987,0.00138410,0.00000000
-31.68967987,-0.00169168,0.00000000
-31.43967988,-0.00645915,0.00000000
-31.18967989,-0.01230315,0.00000000
-30.93967989,-0.01906988,0.00000000
-30.68967990,-0.02583661,0.00000000
-30.43967991,-0.03183440,0.00000000
-30.18967992,-0.03644808,0.00000000
-29.93967992,-0.03890871,0.00000000
-29.68967993,-0.03890871,0.00000000
-29.43967994,-0.03644808,0.00000000
-29.18967994,-0.03183440,0.00000000
-28.93967995,-0.02583661,0.00000000
-28.68967996,-0.01906988,0.00000000
-28.43967996,-0.01230315,0.00000000
-28.18967997,-0.00645915,-0.00015379
-27.93967998,-0.00169168,0.00000000
-27.68967999,0.00138410,0.00015379
-27.43967999,0.00307579,0.00061516
-27.18968000,0.00353716,0.00138410
-26.93968001,0.00307579,0.00230684
-26.68968001,0.00230684,0.00307579
-26.43968002,0.00138410,0.00338337
-26.18968003,0.00061516,0.00292200
-25.93968004,0.00015379,0.00138410
-25.68968004,0.00000000,-0.00169168
-25.43968005,-0.00015379,-0.00584400
-25.18968006,0.00000000,-0.01091904
-24.93968006,0.00000000,-0.01676304
-24.68968007,0.00000000,-0.02276083
-24.43968008,0.00000000,-0.02845103
-24.18968009,0.00000000,-0.03352608
-23.93968009,0.00000000,-0.03752461
-23.68968010,0.00000000,-0.04060039
-23.43968011,0.00000000,-0.04229207
-23.18968011,0.00000000,-0.04290723
-22.93968012,0.00000000,-0.04259966
-22.68968013,0.00000000,-0.04183071
-22.43968013,0.00000000,-0.04075418
-22.18968014,-0.00015379,-0.03983144
-21.93968015,0.00000000,-0.03937008
-21.68968016,0.00015379,-0.03921629
-21.43968016,0.00061516,-0.03921629
-21.18968017,0.00138410,-0.03937008
-20.93968018,0.00230684,-0.03952387
-20.68968018,0.00307579,-0.03952387
-20.43968019,0.00353716,-0.03937008
-20.18968020,0.00307579,-0.03921629
-19.93968021,0.00138410,-0.03921629
-19.68968021,-0.00169168,-0.03937008
-19.43968022,-0.00645915,-0.03983144
-19.18968023,-0.01230315,-0.04075418
-18.93968023,-0.01906988,-0.04183071
-18.68968024,-0.02583661,-0.04259966
-18.43968025,-0.03183440,-0.04290723
-18.18968025,-0.03644808,-0.04229207
-17.93968026,-0.03890871,-0.04060039
-17.68968027,-0.03890871,-0.03752461
-17.43968028,-0.03644808,-0.03291092
-17.18968028,-0.03183440,-0.02706693
-16.93968029,-0.02583661,-0.02045399
-16.68968030,-0.01906988,-0.01368725
-16.43968030,-0.01230315,-0.00753568
-16.18968031,-0.00630536,-0.00292200
-15.93968032,-0.00169168,-0.00030758
-15.68968033,0.00123032,-0.00030758
-15.43968033,0.00246063,-0.00292200
-15.18968034,0.00215305,-0.00753568
-14.93968035,0.00076895,-0.01368725
-14.68968035,-0.00076895,-0.02045399
-14.43968036,-0.00215305,-0.02706693
-14.18968037,-0.00246063,-0.03291092
-13.93968037,-0.00123032,-0.03752461
-13.68968038,0.00169168,-0.04060039
-13.43968039,0.00630536,-0.04229207
-13.18968040,0.01230315,-0.04290723
-12.93968040,0.01906988,-0.04259966
-12.68968041,0.02583661,-0.04183071
-12.43968042,0.03183440,-0.04075418
-12.18968042,0.03644808,-0.03983144
-11.93968043,0.03890871,-0.03921629
-11.68968044,0.03890871,-0.03921629
-11.43968045,0.03644808,-0.03983144
-11.18968045,0.03183440,-0.04075418
-10.93968046,0.02583661,-0.04183071
-10.68968047,0.01906988,-0.04259966
-10.43968047,0.01230315,-0.04290723
-10.18968048,0.00630536,-0.04229207
-9.93968049,0.00169168,-0.04060039
-9.68968050,-0.00123032,-0.03752461
-9.43968050,-0.00246063,-0.03352608
-9.18968051,-0.00215305,-0.02845103
-8.93968052,-0.00076895,-0.02276083
-8.68968052,0.00076895,-0.01676304
-8.43968053,0.00215305,-0.01091904
-8.18968054,0.00246063,-0.00584400
-7.93968054,0.00123032,-0.00169168
-7.68968055,-0.00169168,0.00138410
-7.43968056,-0.00630536,0.00292200
-7.18968057,-0.01230315,0.00338337
-6.93968057,-0.01906988,0.00307579
-6.68968058,-0.02583661,0.00230684
-6.43968059,-0.03152682,0.00138410
-6.18968059,-0.03537155,0.00061516
-5.93968060,-0.03798597,0.00015379
-5.68968061,-0.04060039,0.00000000
-5.43968062,-0.04459892,-0.00015379
-5.18968062,-0.05044291,0.00000000
-4.93968063,-0.05720965,0.00000000
-4.68968064,-0.06197711,0.00000000
-4.43968064,-0.05936269,0.00000000
-4.18968065,-0.04429134,0.00000000
-3.93968066,-0.01722441,0.00000000
-3.68968066,0.01876230,0.00000000
-3.43968067,0.05920891,0.00000000
-3.18968068,0.10027070,0.00000000
-2.93968069,0.14194760,0.00000000
-2.68968069,0.18839200,0.00000000
-2.43968070,0.25221460,0.00000000
-2.18968071,0.34525720,0.00000000
-1.93968071,0.47259470,0.00000000
-1.68968072,0.63299710,0.00000000
-1.43968073,0.82031250,0.00000000
-1.18968074,1.02500600,0.00000000
-0.93968074,1.23769700,0.00000000
-0.68968075,1.45192600,0.00000000
-0.43968076,1.66892200,0.00000000
-0.18968076,1.89207100,0.00000000
0.06031923,2.12014000,0.00000000
0.31031922,2.34990100,0.00000000
0.56031921,2.57612600,0.00000000
0.81031921,2.79220000,0.00000000
1.06031920,2.99197200,0.00000000
1.31031919,3.17113700,0.00000000
1.56031919,3.33092400,0.00000000
1.81031918,3.47287200,-0.00015379
2.06031917,3.59467300,0.00000000
2.31031917,3.69217500,0.00015379
2.56031916,3.76107300,0.00061516
2.81031915,3.79829000,0.00138410
3.06031914,3.80367300,0.00230684
3.31031914,3.78014300,0.00307579
3.56031913,3.73738900,0.00338337
3.81031912,3.68633100,0.00292200
4.06031912,3.63358100,0.00138410
4.31031911,3.58144700,-0.00169168
4.56031910,3.52869700,-0.00584400
4.81031909,3.47102600,-0.01091904
5.06031909,3.40428100,-0.01676304
5.31031908,3.32415700,-0.02276083
5.56031907,3.23357500,-0.02845103
5.81031907,3.14207100,-0.03337229
6.06031906,3.05717900,-0.03752461
6.31031905,2.98489800,-0.04060039
6.56031905,2.92691900,-0.04290723
6.81031904,2.88078300,-0.04413754
7.06031903,2.84095100,-0.04490650
7.31031902,2.79819800,-0.04490650
7.56031902,2.74867700,-0.04413754
7.81031901,2.69731200,-0.04275344
8.06031900,2.64886800,-0.04060039
8.31031900,2.60780600,-0.03767840
8.56031899,2.57643300,-0.03398745
8.81031898,2.55382600,-0.02968135
9.06031897,2.53598700,-0.02491388
9.31031897,2.51553300,-0.01983883
9.56031896,2.48969600,-0.01445620
9.81031895,2.46339800,-0.00891978
10.06031895,2.44048400,-0.00307579
10.31031894,2.42356700,0.00307579
10.56031893,2.41341600,0.00938115
10.81031893,2.40849500,0.01584031
11.06031892,2.40526600,0.02214567
11.31031891,2.39849900,0.02798967
11.56031890,2.38881000,0.03321850
11.81031890,2.38312000,0.03690945
12.06031889,2.38619600,0.03890871
12.31031888,2.40065200,0.03890871
12.56031888,2.42633500,0.03690945
12.81031887,2.45970700,0.03321850
13.06031886,2.49554000,0.02798967
13.31031885,2.52706700,0.02214567
13.56031885,2.55351900,0.01584031
13.81031884,2.58027800,0.00938115
14.06031883,2.61026700,0.00307579
14.31031883,2.64533100,-0.00307579
14.56031882,2.68485500,-0.00891978
14.81031881,2.72545500,-0.01445620
15.06031880,2.76313400,-0.01983883
15.31031880,2.79220000,-0.02491388
15.56031879,2.81311500,-0.02968135
15.81031878,2.83157000,-0.03398745
16.06031878,2.85140900,-0.03767840
16.31031877,2.87432300,-0.04060039
16.56031876,2.89969900,-0.04275344
16.81031876,2.92461300,-0.04413754
17.06031875,2.94445100,-0.04490650
17.31031874,2.95383200,-0.04490650
17.56031873,2.95321700,-0.04413754
17.81031873,2.94829600,-0.04290723
18.06031872,2.94291400,-0.04060039
18.31031871,2.93922200,-0.03752461
18.56031871,2.93691500,-0.03337229
18.81031870,2.93337800,-0.02845103
19.06031869,2.92492000,-0.02276083
19.31031868,2.90708000,-0.01676304
19.56031868,2.88109000,-0.01091904
19.81031867,2.85417700,-0.00584400
20.06031866,2.83157000,-0.00169168
20.31031866,2.81696000,0.00138410
20.56031865,2.81034700,0.00292200
20.81031864,2.80896300,0.00338337
21.06031864,2.80788600,0.00307579
21.31031863,2.80004300,0.00230684
21.56031862,2.78466400,0.00138410
21.81031861,2.76713200,0.00061516
22.06031861,2.75113800,0.00015379
22.31031860,2.73960400,0.00000000
22.56031859,2.73268300,-0.00015379
22.81031859,2.72837700,0.00000000
23.06031858,2.72284100,0.00000000
23.31031857,2.71099900,0.00000000
23.56031856,2.69331300,0.00000000
23.81031856,2.67716500,0.00000000
24.06031855,2.66763000,0.00000000
24.31031854,2.66778400,0.00000000
24.56031854,2.67793400,0.00000000
24.81031853,2.69469700,0.00000000
25.06031852,2.71315200,0.00000000
25.31031851,2.72591600,0.00000000
25.56031851,2.73176100,0.00000000
25.81031850,2.73545100,-0.00015379
26.06031849,2.74083400,0.00000000
26.31031849,2.74975400,0.00015379
26.56031848,2.76251800,0.00061516
26.81031847,2.77636000,0.00138410
27.06031847,2.78774000,0.00230684
27.31031846,2.79127700,0.00307579
27.56031845,2.78743200,0.00338337
27.81031844,2.78281900,0.00292200
28.06031844,2.78205000,0.00138410
28.31031843,2.78774000,-0.00169168
28.56031842,2.79973500,-0.00584400
28.81031842,2.81496000,-0.01091904
29.06031841,2.82864800,-0.01676304
29.31031840,2.83464600,-0.02276083
29.56031839,2.83233900,-0.02845103
29.81031839,2.82741800,-0.03337229
30.06031838,2.82372700,-0.03752461
30.31031837,2.82372700,-0.04060039
30.56031837,2.82741800,-0.04290723
30.81031836,2.83233900,-0.04413754
31.06031835,2.83464600,-0.04490650
31.31031835,2.82864800,-0.04490650
31.56031834,2.81496000,-0.04413754
31.81031833,2.79988900,-0.04290723
32.06031832,2.78789400,-0.04060039
32.31031832,2.78174200,-0.03752461
32.56031831,2.78158900,-0.03337229
32.81031830,2.78466400,-0.02845103
33.06031830,2.78681700,-0.02276083
33.31031829,2.78158900,-0.01676304
33.56031828,2.76943900,-0.01091904
33.81031827,2.75652100,-0.00584400
34.06031827,2.74714000,-0.00169168
34.31031826,2.74406400,0.00138410
34.56031825,2.74714000,0.00292200
34.81031825,2.75375200,0.00338337
35.06031824,2.75959600,0.00307579
35.31031823,2.75867400,0.00230684
35.56031823,2.75159900,0.00123032
35.81031822,2.74467900,0.00046137
36.06031821,2.74283400,0.00000000
36.31031820,2.74898500,0.00000000
36.56031820,2.76344100,0.00046137
36.81031819,2.78312600,0.00123032
37.06031818,2.80296500,0.00230684
37.31031818,2.81557600,0.00307579
37.56031817,2.82003600,0.00353716
37.81031816,2.82111200,0.00307579
38.06031815,2.82203500,0.00138410
38.31031815,2.82511100,-0.00169168
38.56031814,2.83049300,-0.00645915
38.81031813,2.83587600,-0.01230315
39.06031813,2.83772100,-0.01906988
39.31031812,2.83095500,-0.02583661
39.56031811,2.81634500,-0.03183440
39.81031810,2.80050500,-0.03644808
40.06031810,2.78804800,-0.03890871
40.31031809,2.78174200,-0.03890871
40.56031808,2.78158900,-0.03644808
40.81031808,2.78466400,-0.03183440
41.06031807,2.78681700,-0.02583661
41.31031806,2.78158900,-0.01906988
41.56031806,2.76943900,-0.01230315
41.81031805,2.75652100,-0.00645915
42.06031804,2.74714000,-0.00184547
42.31031803,2.74421700,0.00153789
42.56031803,2.74775500,0.00369095
42.81031802,2.75498300,0.00476747
43.06031801,2.76175000,0.00538263
43.31031801,2.76175000,0.00538263
43.56031800,2.75498300,0.00476747
43.81031799,2.74760100,0.00369095
44.06031798,2.74406400,0.00153789
44.31031798,2.74729300,-0.00184547
44.56031797,2.75713600,-0.00645915
44.81031796,2.77082300,-0.01230315
45.06031796,2.78389500,-0.01906988
45.31031795,2.78989300,-0.02583661
45.56031794,2.78820100,-0.03183440
45.81031794,2.78466400,-0.03660187
46.06031793,2.78312600,-0.03890871
46.31031792,2.78604800,-0.03875492
46.56031791,2.79343000,-0.03583292
46.81031791,2.80265800,-0.03060408
47.06031790,2.80973200,-0.02352977
47.31031789,2.80880900,-0.01599409
47.56031789,2.80050500,-0.00891978
47.81031788,2.79097000,-0.00338337
48.06031787,2.78481800,-0.00030758
48.31031786,2.78497200,-0.00030758
48.56031786,2.79158500,-0.00338337
48.81031785,2.80188800,-0.00891978
49.06031784,2.81111600,-0.01599409
49.31031784,2.81280800,-0.02352977
49.56031783,2.80619500,-0.03060408
49.81031782,2.79650600,-0.03583292
50.06031782,2.78743200,-0.03875492
50.31031781,2.78143500,-0.03890871
50.56031780,2.77835900,-0.03660187
50.81031779,2.77589800,-0.03183440
51.06031779,2.77082300,-0.02583661
51.31031778,2.75805900,-0.01906988
51.56031777,2.73883500,-0.01230315
51.81031777,2.72053400,-0.00645915
52.06031776,2.70823100,-0.00169168
52.31031775,2.70530900,0.00138410
52.56031774,2.71176800,0.00307579
52.81031774,2.72437900,0.00353716
53.06031773,2.73822000,0.00307579
53.31031772,2.74575500,0.00230684
53.56031772,2.74606300,0.00138410
53.81031771,2.74421700,0.00061516
54.06031770,2.74375600,0.00015379
54.31031769,2.74698600,0.00000000
54.56031769,2.75436800,-0.00015379
54.81031768,2.76328800,0.00000000
55.06031767,2.77020800,0.00000000
55.31031767,2.76928500,0.00000000
55.56031766,2.76113400,0.00000000
55.81031765,2.75190700,0.00000000
56.06031765,2.74575500,0.00000000
56.31031764,2.74544800,0.00000000
56.56031763,2.75052300,0.00000000
56.81031762,2.75836600,0.00000000
57.06031762,2.76482500,0.00000000
57.31031761,2.76405600,0.00000000
57.56031760,2.75636700,0.00000000
57.81031760,2.74821600,0.00000000
58.06031759,2.74421700,0.00000000
58.31031758,2.74714000,0.00000000
58.56031757,2.75698200,0.00000000
58.81031757,2.77082300,0.00000000
59.06031756,2.78389500,0.00000000
59.31031755,2.78989300,0.00000000
59.56031755,2.78820100,0.00000000
59.81031754,2.78466400,0.00000000
60.06031753,2.78312600,0.00000000
60.31031753,2.78620200,0.00000000
60.56031752,2.79404500,0.00000000
60.81031751,2.80404100,0.00000000
61.06031750,2.81188500,0.00000000
61.31031750,2.81188500,0.00000000
61.56031749,2.80404100,0.00000000
61.81031748,2.79404500,0.00000000
62.06031748,2.78620200,0.00000000
62.31031747,2.78312600,0.00000000
62.56031746,2.78466400,0.00000000
62.81031745,2.78820100,0.00000000
63.06031745,2.78989300,0.00000000
63.31031744,2.78389500,0.00000000
63.56031743,2.77082300,0.00000000
63.81031743,2.75698200,0.00000000
64.06031742,2.74714000,0.00000000
64.31031741,2.74421700,0.00000000
64.56031740,2.74821600,0.00000000
64.81031740,2.75636700,0.00000000
65.06031739,2.76405600,0.00000000
65.31031738,2.76482500,0.00000000
65.56031738,2.75852000,0.00000000
65.81031737,2.75067700,-0.00015379
66.06031736,2.74544800,0.00000000
66.31031736,2.74544800,0.00015379
66.56031735,2.75067700,0.00061516
66.81031734,2.75852000,0.00138410
67.06031733,2.76482500,0.00230684
67.31031733,2.76405600,0.00307579
67.56031732,2.75636700,0.00353716
67.81031731,2.74821600,0.00307579
68.06031731,2.74421700,0.00138410
68.31031730,2.74729300,-0.00169168
68.56031729,2.75759700,-0.00645915
68.81031728,2.77205300,-0.01230315
69.06031728,2.78604800,-0.01906988
69.31031727,2.79296900,-0.02583661
69.56031726,2.79173900,-0.03183440
69.81031726,2.78774000,-0.03644808
70.06031725,2.78451000,-0.03890871
70.31031724,2.78435700,-0.03890871
70.56031724,2.78712500,-0.03644808
70.81031723,2.79035400,-0.03183440
71.06031722,2.79066200,-0.02583661
71.31031721,2.78297200,-0.01906988
71.56031721,2.76867000,-0.01230315
71.81031720,2.75452100,-0.00645915
72.06031719,2.74590900,-0.00169168
72.31031719,2.74590900,0.00138410
72.56031718,2.75452100,0.00307579
72.81031717,2.76867000,0.00353716
73.06031716,2.78297200,0.00307579
73.31031716,2.79066200,0.00230684
73.56031715,2.79035400,0.00138410
73.81031714,2.78712500,0.00061516
74.06031714,2.78435700,0.00015379
74.31031713,2.78451000,0.00000000
74.56031712,2.78774000,-0.00015379
74.81031712,2.79173900,0.00000000
75.06031711,2.79296900,0.00000000
75.31031710,2.78604800,0.00000000
75.56031709,2.77205300,0.00000000
75.81031709,2.75759700,0.00000000
76.06031708,2.74729300,0.00000000
76.31031707,2.74421700,0.00000000
76.56031707,2.74821600,0.00000000
76.81031706,2.75636700,0.00000000
77.06031705,2.76405600,0.00000000
77.31031704,2.76482500,0.00000000
77.56031704,2.75852000,0.00000000
77.81031703,2.75067700,0.00000000
78.06031702,2.74544800,0.00000000
78.31031702,2.74560200,0.00000000
78.56031701,2.75129200,0.00000000
78.81031700,2.75975000,0.00000000
79.06031699,2.76713200,0.00000000
79.31031699,2.76713200,0.00000000
79.56031698,2.75975000,0.00000000
79.81031697,2.75113800,0.00000000
80.06031697,2.74560200,0.00000000
80.31031696,2.74560200,0.00000000
80.56031695,2.75113800,0.00000000
80.81031695,2.75975000,0.00000000
81.06031694,2.76713200,0.00000000
81.31031693,2.76713200,0.00000000
81.56031692,2.75975000,0.00000000
81.81031692,2.75129200,0.00000000
82.06031691,2.74560200,0.00000000
82.31031690,2.74544800,0.00000000
82.56031690,2.75067700,0.00000000
82.81031689,2.75852000,0.00000000
83.06031688,2.76482500,0.00000000
83.31031687,2.76405600,0.00000000
83.56031687,2.75636700,0.00000000
83.81031686,2.74821600,0.00000000
84.06031685,2.74421700,0.00000000
84.31031685,2.74729300,0.00000000
84.56031684,2.75759700,0.00000000
84.81031683,2.77205300,0.00000000
85.06031683,2.78604800,0.00000000
85.31031682,2.79296900,0.00000000
85.56031681,2.79158500,0.00000000
85.81031680,2.78758600,0.00015379
86.06031680,2.78451000,0.00000000
86.31031679,2.78451000,-0.00015379
86.56031678,2.78758600,-0.00061516
86.81031678,2.79158500,-0.00138410
87.06031677,2.79296900,-0.00230684
87.31031676,2.78604800,-0.00307579
87.56031675,2.77205300,-0.00338337
87.81031675,2.75759700,-0.00292200
88.06031674,2.74729300,-0.00138410
88.31031673,2.74421700,0.00169168
88.56031673,2.74821600,0.00584400
88.81031672,2.75636700,0.01091904
89.06031671,2.76405600,0.01676304
89.31031670,2.76482500,0.02276083
89.56031670,2.75852000,0.02845103
89.81031669,2.75067700,0.03352608
90.06031668,2.74544800,0.03752461
90.31031668,2.74560200,0.04060039
90.56031667,2.75129200,0.04229207
90.81031666,2.75975000,0.04290723
91.06031666,2.76713200,0.04259966
91.31031665,2.76713200,0.04183071
91.56031664,2.75975000,0.04075418
