Time,Channel A,Channel B
(ns),(V),(V)

-51.70739431,0.00000000,-0.00046137
-51.45739431,0.00000000,-0.00338337
-51.20739432,0.00000000,-0.00891978
-50.95739433,0.00000000,-0.01599409
-50.70739434,0.00000000,-0.02352977
-50.45739434,0.00000000,-0.03060408
-50.20739435,0.00000000,-0.03598671
-49.95739436,0.00000000,-0.03890871
-49.70739436,0.00000000,-0.03890871
-49.45739437,0.00000000,-0.03598671
-49.20739438,0.00000000,-0.03060408
-48.95739439,0.00000000,-0.02352977
-48.70739439,0.00000000,-0.01599409
-48.45739440,0.00000000,-0.00891978
-48.20739441,-0.00015379,-0.00338337
-47.95739441,0.00000000,-0.00030758
-47.70739442,0.00015379,-0.00030758
-47.45739443,0.00061516,-0.00338337
-47.20739443,0.00138410,-0.00891978
-46.95739444,0.00230684,-0.01599409
-46.70739445,0.00307579,-0.02352977
-46.45739446,0.00353716,-0.03060408
-46.20739446,0.00307579,-0.03583292
-45.95739447,0.00138410,-0.03875492
-45.70739448,-0.00169168,-0.03890871
-45.45739448,-0.00645915,-0.03660187
-45.20739449,-0.01230315,-0.03183440
-44.95739450,-0.01906988,-0.02583661
-44.70739451,-0.02583661,-0.01906988
-44.45739451,-0.03183440,-0.01230315
-44.20739452,-0.03644808,-0.00645915
-43.95739453,-0.03890871,-0.00169168
-43.70739453,-0.03890871,0.00138410
-43.45739454,-0.03644808,0.00307579
-43.20739455,-0.03183440,0.00353716
-42.95739455,-0.02583661,0.00307579
-42.70739456,-0.01906988,0.00230684
-42.45739457,-0.01230315,0.00138410
-42.20739458,-0.00645915,0.00061516
-41.95739458,-0.00169168,0.00015379
-41.70739459,0.00138410,0.00000000
-41.45739460,0.00307579,-0.00015379
-41.20739460,0.00353716,0.00000000
-40.95739461,0.00307579,0.00000000
-40.70739462,0.00230684,0.00000000
-40.45739463,0.00138410,0.00000000
-40.20739463,0.00061516,0.00000000
-39.95739464,0.00015379,0.00000000
-39.70739465,0.00000000,0.00000000
-39.45739465,-0.00015379,0.00000000
-39.20739466,0.00000000,0.00000000
-38.95739467,0.00000000,0.00000000
-38.70739467,0.00000000,0.00000000
-38.45739468,0.00000000,0.00000000
-38.20739469,0.00000000,0.00000000
-37.95739470,0.00000000,0.00000000
-37.70739470,0.00000000,0.00000000
-37.45739471,0.00000000,0.00000000
-37.20739472,0.00000000,0.00000000
-36.95739472,0.00000000,0.00000000
-36.70739473,0.00000000,0.00000000
-36.45739474,0.00000000,0.00000000
-36.20739475,0.00000000,0.00000000
-35.95739475,0.00000000,0.00000000
-35.70739476,0.00000000,0.00000000
-35.45739477,0.00000000,0.00000000
-35.20739477,0.00000000,0.00000000
-34.95739478,0.00000000,0.00000000
-34.70739479,0.00000000,0.00000000
-34.45739480,0.00000000,0.00000000
-34.20739480,0.00000000,0.00000000
-33.95739481,0.00000000,0.00000000
-33.70739482,0.00000000,0.00000000
-33.45739482,0.00000000,0.00000000
-33.20739483,0.00000000,0.00000000
-32.95739484,0.00000000,0.00000000
-32.70739484,0.00000000,0.00000000
-32.45739485,0.00000000,0.00000000
-32.20739486,0.00000000,-0.00015379
-31.95739487,0.00000000,0.00000000
-31.70739487,0.00000000,0.00015379
-31.45739488,0.00000000,0.00061516
-31.20739489,0.00000000,0.00138410
-30.95739489,0.00000000,0.00230684
-30.70739490,0.00000000,0.00307579
-30.45739491,0.00000000,0.00353716
-30.20739492,0.00000000,0.00307579
-29.95739492,0.00000000,0.00138410
-29.70739493,0.00000000,-0.00169168
-29.45739494,0.00000000,-0.00645915
-29.20739494,0.00000000,-0.01230315
-28.95739495,0.00000000,-0.01906988
-28.70739496,0.00000000,-0.02583661
-28.45739496,0.00000000,-0.03183440
-28.20739497,0.00000000,-0.03644808
-27.95739498,0.00000000,-0.03890871
-27.70739499,0.00000000,-0.03890871
-27.45739499,0.00000000,-0.03644808
-27.20739500,0.00000000,-0.03183440
-26.95739501,0.00000000,-0.02583661
-26.70739501,0.00000000,-0.01906988
-26.45739502,0.00000000,-0.01230315
-26.20739503,0.00000000,-0.00645915
-25.95739504,0.00000000,-0.00169168
-25.70739504,0.00000000,0.00138410
-25.45739505,0.00000000,0.00307579
-25.20739506,0.00000000,0.00353716
-24.95739506,0.00000000,0.00307579
-24.70739507,0.00000000,0.00230684
-24.45739508,0.00000000,0.00123032
-24.20739509,-0.00015379,0.00046137
-23.95739509,0.00000000,0.00000000
-23.70739510,0.00015379,0.00000000
-23.45739511,0.00061516,0.00046137
-23.20739511,0.00138410,0.00123032
-22.95739512,0.00230684,0.00230684
-22.70739513,0.00307579,0.00307579
-22.45739513,0.00353716,0.00338337
-22.20739514,0.00307579,0.00292200
-21.95739515,0.00138410,0.00138410
-21.70739516,-0.00169168,-0.00169168
-21.45739516,-0.00645915,-0.00584400
-21.20739517,-0.01230315,-0.01091904
-20.95739518,-0.01906988,-0.01676304
-20.70739518,-0.02583661,-0.02276083
-20.45739519,-0.03183440,-0.02845103
-20.20739520,-0.03644808,-0.03352608
-19.95739521,-0.03890871,-0.03752461
-19.70739521,-0.03890871,-0.04060039
-19.45739522,-0.03644808,-0.04229207
-19.20739523,-0.03183440,-0.04290723
-18.95739523,-0.02583661,-0.04259966
-18.70739524,-0.01906988,-0.04183071
-18.45739525,-0.01230315,-0.04075418
-18.20739525,-0.00645915,-0.03983144
-17.95739526,-0.00169168,-0.03921629
-17.70739527,0.00138410,-0.03921629
-17.45739528,0.00307579,-0.03983144
-17.20739528,0.00353716,-0.04075418
-16.95739529,0.00307579,-0.04183071
-16.70739530,0.00230684,-0.04259966
-16.45739530,0.00138410,-0.04290723
-16.20739531,0.00061516,-0.04229207
-15.95739532,0.00015379,-0.04060039
-15.70739533,0.00000000,-0.03752461
-15.45739533,-0.00015379,-0.03352608
-15.20739534,0.00000000,-0.02845103
-14.95739535,0.00000000,-0.02276083
-14.70739535,0.00000000,-0.01676304
-14.45739536,0.00000000,-0.01091904
-14.20739537,0.00000000,-0.00584400
-13.95739537,0.00000000,-0.00169168
-13.70739538,0.00000000,0.00138410
-13.45739539,0.00000000,0.00292200
-13.20739540,0.00000000,0.00338337
-12.95739540,0.00000000,0.00307579
-12.70739541,0.00000000,0.00230684
-12.45739542,0.00000000,0.00123032
-12.20739542,0.00000000,0.00046137
-11.95739543,0.00000000,0.00000000
-11.70739544,0.00000000,0.00000000
-11.45739545,0.00000000,0.00046137
-11.20739545,0.00000000,0.00123032
-10.95739546,0.00000000,0.00230684
-10.70739547,0.00000000,0.00307579
-10.45739547,0.00000000,0.00338337
-10.20739548,0.00000000,0.00292200
-9.95739549,0.00000000,0.00138410
-9.70739550,0.00000000,-0.00169168
-9.45739550,0.00000000,-0.00584400
-9.20739551,0.00000000,-0.01091904
-8.95739552,0.00000000,-0.01676304
-8.70739552,0.00000000,-0.02276083
-8.45739553,0.00000000,-0.02845103
-8.20739554,0.00000000,-0.03337229
-7.95739554,0.00000000,-0.03752461
-7.70739555,0.00000000,-0.04060039
-7.45739556,0.00000000,-0.04290723
-7.20739557,0.00000000,-0.04413754
-6.95739557,0.00000000,-0.04490650
-6.70739558,0.00000000,-0.04490650
-6.45739559,0.00046137,-0.04413754
-6.20739559,0.00107653,-0.04290723
-5.95739560,0.00092274,-0.04060039
-5.70739561,-0.00169168,-0.03752461
-5.45739562,-0.00830463,-0.03337229
-5.20739562,-0.01860851,-0.02845103
-4.95739563,-0.03137303,-0.02276083
-4.70739564,-0.04306102,-0.01676304
-4.45739564,-0.04705955,-0.01091904
-4.20739565,-0.03783219,-0.00584400
-3.95739566,-0.01537894,-0.00169168
-3.70739566,0.01737820,0.00138410
-3.45739567,0.05613312,0.00292200
-3.20739568,0.09673351,0.00338337
-2.95739569,0.13887180,0.00307579
-2.70739569,0.18623890,0.00230684
-2.45739570,0.25083050,0.00138410
-2.20739571,0.34464200,0.00061516
-1.95739571,0.47244100,0.00015379
-1.70739572,0.63330470,0.00000000
-1.45739573,0.82108150,-0.00015379
-1.20739574,1.02639000,0.00000000
-0.95739574,1.24000400,0.00000000
-0.70739575,1.45500100,0.00000000
-0.45739576,1.67245900,0.00000000
-0.20739576,1.89514600,0.00000000
0.04260423,2.12152400,0.00000000
0.29260422,2.34805600,0.00000000
0.54260421,2.56905100,0.00000000
0.79260421,2.77851200,0.00000000
1.04260420,2.97074900,0.00000000
1.29260419,3.14237800,0.00000000
1.54260419,3.29555200,0.00000000
1.79260418,3.43334800,-0.00015379
2.04260417,3.55438000,0.00000000
2.29260417,3.65495800,0.00015379
2.54260416,3.73108400,0.00061516
2.79260415,3.77875900,0.00138410
3.04260414,3.79690600,0.00230684
3.29260414,3.78691000,0.00307579
3.54260413,3.75692000,0.00338337
3.79260412,3.71647400,0.00292200
4.04260412,3.67079900,0.00138410
4.29260411,3.62158600,-0.00169168
4.54260410,3.56760600,-0.00584400
4.79260409,3.50501300,-0.01091904
5.04260409,3.43088700,-0.01676304
5.29260408,3.34230400,-0.02276083
5.54260407,3.24387900,-0.02845103
5.79260407,3.14606900,-0.03337229
6.04260406,3.05779400,-0.03752461
6.29260405,2.98520500,-0.04060039
6.54260405,2.93014900,-0.04290723
6.79260404,2.88954900,-0.04413754
7.04260403,2.85694500,-0.04490650
7.29260402,2.82172700,-0.04490650
7.54260402,2.77928100,-0.04413754
7.79260401,2.73329900,-0.04275344
8.04260400,2.68762300,-0.04060039
8.29260400,2.64671500,-0.03767840
8.54260399,2.61242000,-0.03398745
8.79260398,2.58443000,-0.02968135
9.04260397,2.55967000,-0.02491388
9.29260397,2.53137300,-0.01983883
9.54260396,2.49846200,-0.01445620
9.79260395,2.46662800,-0.00891978
10.04260395,2.44079100,-0.00307579
10.29260394,2.42402800,0.00307579
10.54260393,2.41741500,0.00938115
10.79260393,2.41864500,0.01584031
11.04260392,2.42341300,0.02214567
11.29260391,2.42510500,0.02798967
11.54260390,2.42279800,0.03321850
11.79260390,2.42202900,0.03690945
12.04260389,2.42633500,0.03890871
12.29260388,2.43786900,0.03890871
12.54260388,2.45647800,0.03690945
12.79260387,2.47923800,0.03321850
13.04260386,2.50230700,0.02798967
13.29260385,2.52030000,0.02214567
13.54260385,2.53398800,0.01584031
13.79260384,2.55013500,0.00938115
14.04260383,2.57305000,0.00307579
14.29260383,2.60519200,-0.00307579
14.54260382,2.64594600,-0.00891978
14.79260381,2.69146800,-0.01445620
15.04260380,2.73652800,-0.01983883
15.29260380,2.77405300,-0.02491388
15.54260379,2.80296500,-0.02983514
15.79260378,2.82772500,-0.03414124
16.04260378,2.85094700,-0.03767840
16.29260377,2.87386200,-0.04044660
16.54260376,2.89585400,-0.04213829
16.79260376,2.91446200,-0.04290723
17.04260375,2.92615000,-0.04259966
17.29260374,2.92707300,-0.04183071
17.54260373,2.91907600,-0.04075418
17.79260373,2.90938700,-0.03983144
18.04260372,2.90277400,-0.03921629
18.29260371,2.90215900,-0.03921629
18.54260371,2.90738800,-0.03983144
18.79260370,2.91507700,-0.04075418
19.04260369,2.92046000,-0.04183071
19.29260368,2.91692300,-0.04259966
19.54260368,2.90415900,-0.04290723
19.79260367,2.88724200,-0.04229207
20.04260366,2.87017100,-0.04060039
20.29260366,2.85540700,-0.03752461
20.54260365,2.84341100,-0.03352608
20.79260364,2.83187700,-0.02845103
21.04260364,2.81772900,-0.02276083
21.29260363,2.79558300,-0.01676304
21.54260362,2.76651700,-0.01091904
21.79260361,2.73760500,-0.00584400
22.04260361,2.71407500,-0.00169168
22.29260360,2.69946500,0.00138410
22.54260359,2.69377500,0.00292200
22.79260359,2.69423600,0.00338337
23.04260358,2.69623500,0.00307579
23.29260357,2.69285200,0.00230684
23.54260356,2.68316300,0.00138410
23.79260356,2.67332100,0.00061516
24.04260355,2.66701500,0.00015379
24.29260354,2.66747700,0.00000000
24.54260354,2.67455100,-0.00015379
24.79260353,2.68593100,0.00000000
25.04260352,2.69731200,0.00000000
25.29260351,2.70238700,0.00000000
25.54260351,2.70115600,0.00000000
25.79260350,2.69961900,-0.00015379
26.04260349,2.70207900,0.00000000
26.29260349,2.71084500,0.00015379
26.54260348,2.72591600,0.00061516
26.79260347,2.74452500,0.00138410
27.04260347,2.76190300,0.00230684
27.29260346,2.77220700,0.00307579
27.54260345,2.77512900,0.00338337
27.79260344,2.77636000,0.00292200
28.04260344,2.78020400,0.00138410
28.29260343,2.78912400,-0.00169168
28.54260342,2.80265800,-0.00584400
28.79260342,2.81834400,-0.01091904
29.04260341,2.83172400,-0.01676304
29.29260340,2.83695200,-0.02276083
29.54260339,2.83372300,-0.02845103
29.79260339,2.82803300,-0.03337229
30.04260338,2.82372700,-0.03752461
30.29260337,2.82372700,-0.04060039
30.54260337,2.82803300,-0.04290723
30.79260336,2.83372300,-0.04413754
31.04260335,2.83695200,-0.04490650
31.29260335,2.83172400,-0.04490650
31.54260334,2.81849800,-0.04413754
31.79260333,2.80296500,-0.04290723
32.04260332,2.78927800,-0.04060039
32.29260332,2.77989600,-0.03752461
32.54260331,2.77466800,-0.03337229
32.79260330,2.77113100,-0.02845103
33.04260330,2.76544000,-0.02276083
33.29260329,2.75267600,-0.01676304
33.54260328,2.73406700,-0.01091904
33.79260327,2.71699700,-0.00584400
34.04260327,2.70684700,-0.00169168
34.29260326,2.70700000,0.00138410
34.54260325,2.71776600,0.00292200
34.79260325,2.73545100,0.00338337
35.04260324,2.75498300,0.00307579
35.29260323,2.76851600,0.00230684
35.54260323,2.77451400,0.00123032
35.79260322,2.77774400,0.00046137
36.04260321,2.78128100,0.00000000
36.29260320,2.78758600,0.00000000
36.54260320,2.79650600,0.00046137
36.79260319,2.80619500,0.00123032
37.04260318,2.81280800,0.00230684
37.29260318,2.81111600,0.00307579
37.54260317,2.80188800,0.00338337
37.79260316,2.79158500,0.00292200
38.04260315,2.78497200,0.00138410
38.29260315,2.78481800,-0.00169168
38.54260314,2.79097000,-0.00584400
38.79260313,2.80050500,-0.01091904
39.04260313,2.80880900,-0.01676304
39.29260312,2.80973200,-0.02276083
39.54260311,2.80265800,-0.02845103
39.79260310,2.79343000,-0.03337229
40.04260310,2.78604800,-0.03752461
40.29260309,2.78312600,-0.04060039
40.54260308,2.78466400,-0.04290723
40.79260308,2.78820100,-0.04413754
41.04260307,2.78989300,-0.04490650
41.29260306,2.78389500,-0.04490650
41.54260306,2.77082300,-0.04413754
41.79260305,2.75698200,-0.04290723
42.04260304,2.74714000,-0.04060039
42.29260303,2.74421700,-0.03752461
42.54260303,2.74821600,-0.03337229
42.79260302,2.75636700,-0.02845103
43.04260301,2.76405600,-0.02276083
43.29260301,2.76482500,-0.01676304
43.54260300,2.75852000,-0.01107283
43.79260299,2.75067700,-0.00584400
44.04260298,2.74544800,-0.00169168
44.29260298,2.74544800,0.00138410
44.54260297,2.75067700,0.00353716
44.79260296,2.75852000,0.00476747
45.04260296,2.76482500,0.00538263
45.29260295,2.76405600,0.00538263
45.54260294,2.75636700,0.00476747
45.79260294,2.74821600,0.00353716
46.04260293,2.74421700,0.00138410
46.29260292,2.74714000,-0.00169168
46.54260291,2.75698200,-0.00584400
46.79260291,2.77082300,-0.01107283
47.04260290,2.78389500,-0.01676304
47.29260289,2.78989300,-0.02276083
47.54260289,2.78820100,-0.02845103
47.79260288,2.78466400,-0.03337229
48.04260287,2.78312600,-0.03752461
48.29260286,2.78620200,-0.04060039
48.54260286,2.79404500,-0.04290723
48.79260285,2.80404100,-0.04413754
49.04260284,2.81188500,-0.04490650
49.29260284,2.81188500,-0.04490650
49.54260283,2.80388800,-0.04413754
49.79260282,2.79389100,-0.04290723
50.04260282,2.78620200,-0.04060039
50.29260281,2.78328000,-0.03752461
50.54260280,2.78512500,-0.03337229
50.79260279,2.78958500,-0.02845103
51.04260279,2.79204600,-0.02276083
51.29260278,2.78697100,-0.01676304
51.54260277,2.77420600,-0.01107283
51.79260277,2.76005800,-0.00584400
52.04260276,2.74867700,-0.00169168
52.29260275,2.74237200,0.00138410
52.54260274,2.74129500,0.00353716
52.79260274,2.74268000,0.00476747
53.04260273,2.74268000,0.00538263
53.29260272,2.73591300,0.00538263
53.54260272,2.72314800,0.00476747
53.79260271,2.71115300,0.00369095
54.04260270,2.70515500,0.00153789
54.29260269,2.70853900,-0.00184547
54.54260269,2.72130300,-0.00645915
54.79260268,2.74021900,-0.01230315
55.04260267,2.76036500,-0.01906988
55.29260267,2.77389900,-0.02583661
55.54260266,2.77943500,-0.03183440
55.79260265,2.78128100,-0.03644808
56.04260265,2.78281900,-0.03890871
56.29260264,2.78574000,-0.03890871
56.54260263,2.79004700,-0.03644808
56.79260262,2.79373800,-0.03183440
57.04260262,2.79373800,-0.02583661
57.29260261,2.78527900,-0.01906988
57.54260260,2.76990000,-0.01230315
57.79260260,2.75513600,-0.00645915
58.04260259,2.74606300,-0.00169168
58.29260258,2.74590900,0.00138410
58.54260257,2.75452100,0.00307579
58.79260257,2.76851600,0.00353716
59.04260256,2.78297200,0.00307579
59.29260255,2.79066200,0.00230684
59.54260255,2.79035400,0.00123032
59.79260254,2.78712500,0.00046137
60.04260253,2.78435700,0.00000000
60.29260253,2.78451000,0.00000000
60.54260252,2.78774000,0.00046137
60.79260251,2.79173900,0.00123032
61.04260250,2.79296900,0.00230684
61.29260250,2.78604800,0.00307579
61.54260249,2.77205300,0.00338337
61.79260248,2.75759700,0.00292200
62.04260248,2.74729300,0.00138410
62.29260247,2.74421700,-0.00169168
62.54260246,2.74821600,-0.00584400
62.79260245,2.75636700,-0.01091904
63.04260245,2.76405600,-0.01676304
63.29260244,2.76482500,-0.02276083
63.54260243,2.75852000,-0.02845103
63.79260243,2.75067700,-0.03352608
64.04260242,2.74544800,-0.03752461
64.29260241,2.74544800,-0.04060039
64.54260240,2.75067700,-0.04229207
64.79260240,2.75852000,-0.04290723
65.04260239,2.76482500,-0.04259966
65.29260238,2.76405600,-0.04183071
65.54260238,2.75636700,-0.04075418
65.79260237,2.74821600,-0.03983144
66.04260236,2.74421700,-0.03937008
66.29260236,2.74729300,-0.03921629
66.54260235,2.75759700,-0.03921629
66.79260234,2.77205300,-0.03937008
67.04260233,2.78604800,-0.03952387
67.29260233,2.79296900,-0.03952387
67.54260232,2.79173900,-0.03937008
67.79260231,2.78774000,-0.03921629
68.04260231,2.78451000,-0.03921629
68.29260230,2.78435700,-0.03937008
68.54260229,2.78712500,-0.03983144
68.79260228,2.79035400,-0.04075418
69.04260228,2.79066200,-0.04183071
69.29260227,2.78297200,-0.04259966
69.54260226,2.76867000,-0.04290723
69.79260226,2.75452100,-0.04229207
70.04260225,2.74590900,-0.04060039
70.29260224,2.74590900,-0.03752461
70.54260224,2.75452100,-0.03352608
70.79260223,2.76867000,-0.02845103
71.04260222,2.78297200,-0.02276083
71.29260221,2.79066200,-0.01676304
71.54260221,2.79035400,-0.01091904
71.79260220,2.78712500,-0.00584400
72.04260219,2.78435700,-0.00169168
72.29260219,2.78435700,0.00138410
72.54260218,2.78712500,0.00292200
72.79260217,2.79035400,0.00338337
73.04260216,2.79066200,0.00307579
73.29260216,2.78297200,0.00230684
73.54260215,2.76867000,0.00138410
73.79260214,2.75452100,0.00061516
74.04260214,2.74590900,0.00015379
74.29260213,2.74590900,0.00000000
74.54260212,2.75452100,-0.00015379
74.79260212,2.76867000,0.00000000
75.04260211,2.78297200,0.00000000
75.29260210,2.79066200,0.00000000
75.54260209,2.79035400,0.00000000
75.79260209,2.78712500,0.00000000
76.04260208,2.78435700,0.00000000
76.29260207,2.78451000,0.00000000
76.54260207,2.78774000,0.00000000
76.79260206,2.79173900,0.00000000
77.04260205,2.79296900,0.00000000
77.29260204,2.78604800,0.00000000
77.54260204,2.77205300,0.00000000
77.79260203,2.75759700,-0.00015379
78.04260202,2.74729300,0.00000000
78.29260202,2.74421700,0.00015379
78.54260201,2.74821600,0.00061516
78.79260200,2.75636700,0.00138410
79.04260199,2.76405600,0.00230684
79.29260199,2.76482500,0.00307579
79.54260198,2.75852000,0.00338337
79.79260197,2.75067700,0.00292200
80.04260197,2.74544800,0.00138410
80.29260196,2.74544800,-0.00169168
80.54260195,2.75067700,-0.00584400
80.79260195,2.75852000,-0.01091904
81.04260194,2.76482500,-0.01676304
81.29260193,2.76405600,-0.02276083
81.54260192,2.75636700,-0.02845103
81.79260192,2.74821600,-0.03352608
82.04260191,2.74421700,-0.03752461
82.29260190,2.74714000,-0.04060039
82.54260190,2.75698200,-0.04229207
82.79260189,2.77082300,-0.04290723
83.04260188,2.78389500,-0.04259966
83.29260187,2.78989300,-0.04183071
83.54260187,2.78820100,-0.04075418
83.79260186,2.78466400,-0.03983144
84.04260185,2.78312600,-0.03921629
84.29260185,2.78604800,-0.03921629
84.54260184,2.79343000,-0.03983144
84.79260183,2.80265800,-0.04075418
85.04260183,2.80973200,-0.04183071
85.29260182,2.80880900,-0.04259966
85.54260181,2.80050500,-0.04290723
85.79260180,2.79097000,-0.04229207
86.04260180,2.78481800,-0.04060039
86.29260179,2.78481800,-0.03752461
86.54260178,2.79097000,-0.03291092
86.79260178,2.80050500,-0.02706693
87.04260177,2.80880900,-0.02045399
87.29260176,2.80973200,-0.01368725
87.54260175,2.80265800,-0.00753568
87.79260175,2.79343000,-0.00292200
88.04260174,2.78604800,-0.00030758
88.29260173,2.78312600,-0.00030758
88.54260173,2.78466400,-0.00292200
88.79260172,2.78820100,-0.00753568
89.04260171,2.78989300,-0.01368725
89.29260170,2.78389500,-0.02045399
89.54260170,2.77082300,-0.02706693
89.79260169,2.75698200,-0.03275714
90.04260168,2.74714000,-0.03737082
90.29260168,2.74421700,-0.04075418
90.54260167,2.74821600,-0.04290723
90.79260166,2.75636700,-0.04429134
91.04260166,2.76405600,-0.04490650
