Time,Channel A,Channel B
(ns),(V),(V)

-50.58627431,0.00000000,0.00015379
-50.33627431,-0.00015379,0.00061516
-50.08627432,0.00000000,0.00138410
-49.83627433,0.00000000,0.00230684
-49.58627434,0.00000000,0.00307579
-49.33627434,0.00000000,0.00353716
-49.08627435,0.00000000,0.00307579
-48.83627436,0.00000000,0.00138410
-48.58627436,0.00000000,-0.00169168
-48.33627437,0.00000000,-0.00645915
-48.08627438,0.00000000,-0.01230315
-47.83627439,0.00000000,-0.01906988
-47.58627439,0.00000000,-0.02583661
-47.33627440,0.00000000,-0.03183440
-47.08627441,-0.00015379,-0.03660187
-46.83627441,0.00000000,-0.03890871
-46.58627442,0.00015379,-0.03875492
-46.33627443,0.00061516,-0.03583292
-46.08627443,0.00138410,-0.03060408
-45.83627444,0.00230684,-0.02352977
-45.58627445,0.00307579,-0.01599409
-45.33627446,0.00353716,-0.00891978
-45.08627446,0.00307579,-0.00338337
-44.83627447,0.00138410,-0.00030758
-44.58627448,-0.00169168,-0.00030758
-44.33627448,-0.00645915,-0.00338337
-44.08627449,-0.01230315,-0.00891978
-43.83627450,-0.01906988,-0.01599409
-43.58627451,-0.02583661,-0.02352977
-43.33627451,-0.03183440,-0.03060408
-43.08627452,-0.03644808,-0.03598671
-42.83627453,-0.03890871,-0.03890871
-42.58627453,-0.03890871,-0.03890871
-42.33627454,-0.03644808,-0.03598671
-42.08627455,-0.03183440,-0.03060408
-41.83627455,-0.02583661,-0.02352977
-41.58627456,-0.01906988,-0.01599409
-41.33627457,-0.01230315,-0.00891978
-41.08627458,-0.00645915,-0.00338337
-40.83627458,-0.00169168,-0.00030758
-40.58627459,0.00138410,-0.00030758
-40.33627460,0.00307579,-0.00338337
-40.08627460,0.00353716,-0.00891978
-39.83627461,0.00307579,-0.01599409
-39.58627462,0.00230684,-0.02352977
-39.33627463,0.00138410,-0.03060408
-39.08627463,0.00061516,-0.03598671
-38.83627464,0.00015379,-0.03890871
-38.58627465,0.00000000,-0.03890871
-38.33627465,-0.00015379,-0.03598671
-38.08627466,0.00000000,-0.03060408
-37.83627467,0.00000000,-0.02352977
-37.58627467,0.00000000,-0.01599409
-37.33627468,0.00000000,-0.00891978
-37.08627469,0.00000000,-0.00338337
-36.83627470,0.00000000,-0.00046137
-36.58627470,0.00000000,-0.00030758
-36.33627471,0.00000000,-0.00276821
-36.08627472,0.00000000,-0.00753568
-35.83627472,0.00000000,-0.01368725
-35.58627473,0.00000000,-0.02045399
-35.33627474,0.00000000,-0.02706693
-35.08627475,-0.00015379,-0.03291092
-34.83627475,0.00000000,-0.03752461
-34.58627476,0.00015379,-0.04060039
-34.33627477,0.00061516,-0.04229207
-34.08627477,0.00138410,-0.04290723
-33.83627478,0.00230684,-0.04259966
-33.58627479,0.00307579,-0.04183071
-33.33627480,0.00353716,-0.04075418
-33.08627480,0.00307579,-0.03983144
-32.83627481,0.00138410,-0.03921629
-32.58627482,-0.00169168,-0.03921629
-32.33627482,-0.00645915,-0.03983144
-32.08627483,-0.01230315,-0.04075418
-31.83627484,-0.01906988,-0.04183071
-31.58627484,-0.02583661,-0.04259966
-31.33627485,-0.03183440,-0.04290723
-31.08627486,-0.03644808,-0.04229207
-30.83627487,-0.03890871,-0.04060039
-30.58627487,-0.03890871,-0.03752461
-30.33627488,-0.03644808,-0.03291092
-30.08627489,-0.03183440,-0.02706693
-29.83627489,-0.02583661,-0.02045399
-29.58627490,-0.01906988,-0.01368725
-29.33627491,-0.01230315,-0.00753568
-29.08627492,-0.00630536,-0.00276821
-28.83627492,-0.00169168,-0.00030758
-28.58627493,0.00123032,-0.00046137
-28.33627494,0.00246063,-0.00338337
-28.08627494,0.00215305,-0.00891978
-27.83627495,0.00076895,-0.01599409
-27.58627496,-0.00076895,-0.02352977
-27.33627496,-0.00215305,-0.03060408
-27.08627497,-0.00246063,-0.03598671
-26.83627498,-0.00123032,-0.03890871
-26.58627499,0.00169168,-0.03890871
-26.33627499,0.00630536,-0.03598671
-26.08627500,0.01230315,-0.03060408
-25.83627501,0.01906988,-0.02352977
-25.58627501,0.02583661,-0.01599409
-25.33627502,0.03183440,-0.00891978
-25.08627503,0.03644808,-0.00338337
-24.83627504,0.03890871,-0.00030758
-24.58627504,0.03890871,-0.00030758
-24.33627505,0.03644808,-0.00338337
-24.08627506,0.03183440,-0.00891978
-23.83627506,0.02583661,-0.01599409
-23.58627507,0.01906988,-0.02352977
-23.33627508,0.01230315,-0.03060408
-23.08627509,0.00630536,-0.03583292
-22.83627509,0.00169168,-0.03875492
-22.58627510,-0.00123032,-0.03890871
-22.33627511,-0.00246063,-0.03660187
-22.08627511,-0.00215305,-0.03183440
-21.83627512,-0.00076895,-0.02583661
-21.58627513,0.00076895,-0.01906988
-21.33627513,0.00215305,-0.01230315
-21.08627514,0.00246063,-0.00645915
-20.83627515,0.00123032,-0.00169168
-20.58627516,-0.00169168,0.00138410
-20.33627516,-0.00630536,0.00307579
-20.08627517,-0.01230315,0.00353716
-19.83627518,-0.01906988,0.00307579
-19.58627518,-0.02583661,0.00230684
-19.33627519,-0.03183440,0.00123032
-19.08627520,-0.03644808,0.00046137
-18.83627521,-0.03890871,0.00000000
-18.58627521,-0.03890871,0.00000000
-18.33627522,-0.03644808,0.00046137
-18.08627523,-0.03183440,0.00123032
-17.83627523,-0.02583661,0.00230684
-17.58627524,-0.01906988,0.00307579
-17.33627525,-0.01230315,0.00353716
-17.08627525,-0.00645915,0.00307579
-16.83627526,-0.00169168,0.00138410
-16.58627527,0.00138410,-0.00169168
-16.33627528,0.00307579,-0.00645915
-16.08627528,0.00353716,-0.01230315
-15.83627529,0.00307579,-0.01906988
-15.58627530,0.00230684,-0.02583661
-15.33627530,0.00138410,-0.03183440
-15.08627531,0.00061516,-0.03660187
-14.83627532,0.00015379,-0.03890871
-14.58627533,0.00000000,-0.03875492
-14.33627533,-0.00015379,-0.03583292
-14.08627534,0.00000000,-0.03060408
-13.83627535,0.00000000,-0.02352977
-13.58627535,0.00000000,-0.01599409
-13.33627536,0.00000000,-0.00891978
-13.08627537,0.00000000,-0.00338337
-12.83627537,0.00000000,-0.00046137
-12.58627538,0.00000000,-0.00030758
-12.33627539,0.00000000,-0.00276821
-12.08627540,0.00000000,-0.00753568
-11.83627540,0.00000000,-0.01368725
-11.58627541,0.00000000,-0.02045399
-11.33627542,0.00000000,-0.02706693
-11.08627542,0.00000000,-0.03291092
-10.83627543,0.00000000,-0.03752461
-10.58627544,0.00000000,-0.04060039
-10.33627545,0.00000000,-0.04229207
-10.08627545,0.00000000,-0.04290723
-9.83627546,0.00000000,-0.04259966
-9.58627547,0.00000000,-0.04183071
-9.33627547,0.00000000,-0.04075418
-9.08627548,0.00000000,-0.03983144
-8.83627549,0.00000000,-0.03921629
-8.58627550,0.00000000,-0.03921629
-8.33627550,0.00000000,-0.03983144
-8.08627551,0.00000000,-0.04075418
-7.83627552,0.00000000,-0.04183071
-7.58627552,0.00000000,-0.04259966
-7.33627553,0.00015379,-0.04290723
-7.08627554,0.00030758,-0.04229207
-6.83627554,0.00030758,-0.04060039
-6.58627555,-0.00046137,-0.03752461
-6.33627556,-0.00230684,-0.03291092
-6.08627557,-0.00538263,-0.02706693
-5.83627557,-0.00891978,-0.02045399
-5.58627558,-0.01230315,-0.01368725
-5.33627559,-0.01276452,-0.00753568
-5.08627559,-0.00907357,-0.00276821
-4.83627560,-0.00292200,-0.00030758
-4.58627561,0.00230684,-0.00046137
-4.33627562,0.00322958,-0.00338337
-4.08627562,-0.00123032,-0.00891978
-3.83627563,-0.00891978,-0.01599409
-3.58627564,-0.01353347,-0.02352977
-3.33627564,-0.00215305,-0.03060408
-3.08627565,0.03706324,-0.03598671
-2.83627566,0.10888290,-0.03890871
-2.58627566,0.21207550,-0.03890871
-2.33627567,0.34079720,-0.03598671
-2.08627568,0.48674330,-0.03060408
-1.83627569,0.64268580,-0.02352977
-1.58627569,0.80508730,-0.01599409
-1.33627570,0.97840790,-0.00891978
-1.08627571,1.16926100,-0.00338337
-0.83627571,1.37887500,-0.00030758
-0.58627572,1.60479200,-0.00030758
-0.33627573,1.84116600,-0.00338337
-0.08627574,2.08030900,-0.00891978
0.16372426,2.31391500,-0.01599409
0.41372425,2.53583300,-0.02352977
0.66372424,2.74575500,-0.03060408
0.91372424,2.94475900,-0.03598671
1.16372423,3.12961400,-0.03890871
1.41372422,3.29586000,-0.03875492
1.66372421,3.43857600,-0.03537155
1.91372421,3.55345700,-0.02921998
2.16372420,3.63850300,-0.02137672
2.41372419,3.69509700,-0.01291831
2.66372419,3.73031500,-0.00538263
2.91372418,3.75184500,-0.00046137
3.16372417,3.76276500,0.00092274
3.41372417,3.76291800,-0.00199926
3.66372416,3.74938500,-0.00922736
3.91372415,3.71847300,-0.01983883
4.16372414,3.66772300,-0.03275714
4.41372414,3.59636400,-0.04629060
4.66372413,3.51039600,-0.05905512
4.91372412,3.42027500,-0.06935900
5.16372412,3.33400000,-0.07643332
5.41372411,3.25587500,-0.07950910
5.66372410,3.18697700,-0.07874016
5.91372409,3.12407700,-0.07474163
6.16372409,3.06194600,-0.06843627
6.41372408,2.99366400,-0.06074680
6.66372407,2.91830700,-0.05305733
6.91372407,2.84295000,-0.04613681
7.16372406,2.77451400,-0.04090797
7.41372405,2.71884200,-0.03798597
7.66372405,2.67824200,-0.03737082
7.91372404,2.65117500,-0.03860113
8.16372403,2.63225900,-0.04090797
8.41372402,2.61165100,-0.04336860
8.66372402,2.58443000,-0.04506029
8.91372401,2.55413400,-0.04459892
9.16372400,2.52383700,-0.04167692
9.41372400,2.49630900,-0.03598671
9.66372399,2.47324100,-0.02768209
9.91372398,2.45370900,-0.01753199
10.16372397,2.43540800,-0.00599779
10.41372397,2.41326300,0.00599779
10.66372396,2.38788700,0.01737820
10.91372395,2.36666500,0.02752830
11.16372395,2.35436200,0.03583292
11.41372394,2.35420800,0.04213829
11.66372393,2.36605000,0.04644439
11.91372393,2.38650300,0.04890502
12.16372392,2.41095600,0.05013533
12.41372391,2.43233300,0.05013533
12.66372390,2.44986500,0.04890502
12.91372390,2.46939600,0.04629060
13.16372389,2.49431000,0.04198450
13.41372388,2.52675900,0.03598671
13.66372388,2.56643700,0.02814345
13.91372387,2.61011300,0.01876230
14.16372386,2.65302000,0.00815084
14.41372385,2.68885400,-0.00292200
14.66372385,2.71715000,-0.01399483
14.91372384,2.74314100,-0.02460630
15.16372383,2.76990000,-0.03444882
15.41372383,2.79865900,-0.04367618
15.66372382,2.82895500,-0.05213460
15.91372381,2.85756000,-0.05997785
16.16372380,2.88078300,-0.06689838
16.41372380,2.89354700,-0.07289616
16.66372379,2.89708400,-0.07735606
16.91372378,2.89785300,-0.07981668
17.16372378,2.89954500,-0.07966289
17.41372377,2.90462000,-0.07627953
17.66372376,2.91261700,-0.06982037
17.91372376,2.92061400,-0.06028543
18.16372375,2.92430500,-0.04859744
18.41372374,2.91846100,-0.03583292
18.66372373,2.90339000,-0.02337598
18.91372373,2.88539600,-0.01214936
19.16372372,2.86909500,-0.00338337
19.41372371,2.85709900,0.00261442
19.66372371,2.84971700,0.00599779
19.91372370,2.84418100,0.00692052
20.16372369,2.83664500,0.00615158
20.41372368,2.82142000,0.00445989
20.66372368,2.79835100,0.00261442
20.91372367,2.77389900,0.00123032
21.16372366,2.75298400,0.00030758
21.41372366,2.73837400,-0.00015379
21.66372365,2.73083800,-0.00015379
21.91372364,2.72745500,0.00000000
22.16372364,2.72422500,0.00000000
22.41372363,2.71484400,0.00000000
22.66372362,2.69900300,0.00000000
22.91372361,2.68270200,0.00000000
23.16372361,2.67024500,0.00000000
23.41372360,2.66440100,0.00000000
23.66372359,2.66517000,0.00000000
23.91372359,2.67009100,0.00000000
24.16372358,2.67516600,0.00000000
24.41372357,2.67439700,0.00000000
24.66372356,2.66793800,0.00000000
24.91372356,2.66255500,-0.00015379
25.16372355,2.66301700,0.00000000
25.41372354,2.67209000,0.00015379
25.66372354,2.68962200,0.00061516
25.91372353,2.71269100,0.00138410
26.16372352,2.73622000,0.00230684
26.41372351,2.75313700,0.00307579
26.66372351,2.76282600,0.00338337
26.91372350,2.77005400,0.00292200
27.16372349,2.77851200,0.00138410
27.41372349,2.79035400,-0.00169168
27.66372348,2.80511800,-0.00584400
27.91372347,2.82049700,-0.01091904
28.16372347,2.83264600,-0.01676304
28.41372346,2.83603000,-0.02276083
28.66372345,2.83157000,-0.02845103
28.91372344,2.82557200,-0.03352608
29.16372344,2.82249600,-0.03752461
29.41372343,2.82541800,-0.04060039
29.66372342,2.83433800,-0.04229207
29.91372342,2.84602600,-0.04290723
30.16372341,2.85586900,-0.04259966
30.41372340,2.85756000,-0.04183071
30.66372339,2.85033200,-0.04075418
30.91372339,2.83925900,-0.03983144
31.16372338,2.82803300,-0.03921629
31.41372337,2.81911300,-0.03921629
31.66372337,2.81234600,-0.03983144
31.91372336,2.80558000,-0.04075418
32.16372335,2.79573700,-0.04183071
32.41372335,2.77789700,-0.04259966
32.66372334,2.75344500,-0.04290723
32.91372333,2.72945400,-0.04229207
33.16372332,2.71130700,-0.04060039
33.41372332,2.70223300,-0.03752461
33.66372331,2.70192500,-0.03352608
33.91372330,2.70730800,-0.02845103
34.16372330,2.71392100,-0.02276083
34.41372329,2.71469000,-0.01676304
34.66372328,2.70946100,-0.01107283
34.91372327,2.70423200,-0.00584400
35.16372327,2.70346400,-0.00169168
35.41372326,2.70961500,0.00138410
35.66372325,2.72314800,0.00353716
35.91372325,2.74114200,0.00476747
36.16372324,2.75882700,0.00538263
36.41372323,2.76990000,0.00538263
36.66372323,2.77374500,0.00476747
36.91372322,2.77574400,0.00353716
37.16372321,2.78005000,0.00138410
37.41372320,2.78927800,-0.00169168
37.66372320,2.80342600,-0.00584400
37.91372319,2.81972800,-0.01107283
38.16372318,2.83403000,-0.01676304
38.41372318,2.84002800,-0.02276083
38.66372317,2.83710600,-0.02845103
38.91372316,2.83095500,-0.03337229
39.16372315,2.82511100,-0.03752461
39.41372315,2.82203500,-0.04060039
39.66372314,2.82157400,-0.04290723
39.91372313,2.82142000,-0.04413754
40.16372313,2.81788300,-0.04490650
40.41372312,2.80604100,-0.04490650
40.66372311,2.78651000,-0.04429134
40.91372310,2.76651700,-0.04290723
41.16372310,2.75036900,-0.04075418
41.41372309,2.74114200,-0.03737082
41.66372308,2.73883500,-0.03275714
41.91372308,2.74052600,-0.02706693
42.16372307,2.74191100,-0.02045399
42.41372306,2.73683500,-0.01368725
42.66372306,2.72530100,-0.00753568
42.91372305,2.71361400,-0.00292200
43.16372304,2.70653900,-0.00030758
43.41372303,2.70669300,-0.00030758
43.66372303,2.71438200,-0.00292200
43.91372302,2.72668600,-0.00753568
44.16372301,2.73898900,-0.01368725
44.41372301,2.74498700,-0.02045399
44.66372300,2.74406400,-0.02706693
44.91372299,2.74191100,-0.03275714
45.16372298,2.74252600,-0.03737082
45.41372298,2.74852400,-0.04075418
45.66372297,2.76005800,-0.04290723
45.91372296,2.77420600,-0.04429134
46.16372296,2.78697100,-0.04490650
46.41372295,2.79204600,-0.04490650
46.66372294,2.78943200,-0.04413754
46.91372294,2.78512500,-0.04290723
47.16372293,2.78328000,-0.04060039
47.41372292,2.78620200,-0.03752461
47.66372291,2.79389100,-0.03337229
47.91372291,2.80388800,-0.02845103
48.16372290,2.81188500,-0.02276083
48.41372289,2.81188500,-0.01676304
48.66372289,2.80404100,-0.01107283
48.91372288,2.79404500,-0.00584400
49.16372287,2.78620200,-0.00169168
49.41372286,2.78312600,0.00138410
49.66372286,2.78466400,0.00353716
49.91372285,2.78820100,0.00476747
50.16372284,2.78989300,0.00538263
50.41372284,2.78389500,0.00538263
50.66372283,2.77066900,0.00476747
50.91372282,2.75698200,0.00353716
51.16372282,2.74714000,0.00138410
51.41372281,2.74437100,-0.00169168
51.66372280,2.74883100,-0.00584400
51.91372279,2.75759700,-0.01107283
52.16372279,2.76620900,-0.01676304
52.41372278,2.76790100,-0.02276083
52.66372277,2.76190300,-0.02845103
52.91372277,2.75375200,-0.03352608
53.16372276,2.74683200,-0.03752461
53.41372275,2.74375600,-0.04060039
53.66372274,2.74421700,-0.04229207
53.91372274,2.74621700,-0.04290723
54.16372273,2.74575500,-0.04259966
54.41372272,2.73822000,-0.04183071
54.66372272,2.72437900,-0.04075418
54.91372271,2.71176800,-0.03983144
55.16372270,2.70530900,-0.03921629
55.41372269,2.70823100,-0.03921629
55.66372269,2.72053400,-0.03983144
55.91372268,2.73883500,-0.04075418
56.16372267,2.75805900,-0.04183071
56.41372267,2.77082300,-0.04259966
56.66372266,2.77589800,-0.04290723
56.91372265,2.77835900,-0.04229207
57.16372265,2.78143500,-0.04060039
57.41372264,2.78743200,-0.03752461
57.66372263,2.79650600,-0.03291092
57.91372262,2.80619500,-0.02706693
58.16372262,2.81280800,-0.02045399
58.41372261,2.81111600,-0.01368725
58.66372260,2.80188800,-0.00753568
58.91372260,2.79158500,-0.00276821
59.16372259,2.78497200,-0.00030758
59.41372258,2.78481800,-0.00046137
59.66372257,2.79097000,-0.00338337
59.91372257,2.80050500,-0.00891978
60.16372256,2.80880900,-0.01599409
60.41372255,2.80973200,-0.02352977
60.66372255,2.80265800,-0.03060408
60.91372254,2.79343000,-0.03598671
61.16372253,2.78604800,-0.03890871
61.41372253,2.78312600,-0.03890871
61.66372252,2.78466400,-0.03598671
61.91372251,2.78820100,-0.03060408
62.16372250,2.78989300,-0.02352977
62.41372250,2.78389500,-0.01599409
62.66372249,2.77082300,-0.00891978
62.91372248,2.75698200,-0.00338337
63.16372248,2.74714000,-0.00030758
63.41372247,2.74421700,-0.00030758
63.66372246,2.74821600,-0.00338337
63.91372245,2.75636700,-0.00891978
64.16372245,2.76405600,-0.01599409
64.41372244,2.76482500,-0.02352977
64.66372243,2.75852000,-0.03060408
64.91372243,2.75067700,-0.03598671
65.16372242,2.74544800,-0.03890871
65.41372241,2.74544800,-0.03890871
65.66372240,2.75067700,-0.03598671
65.91372240,2.75852000,-0.03060408
66.16372239,2.76482500,-0.02352977
66.41372238,2.76405600,-0.01599409
66.66372238,2.75636700,-0.00891978
66.91372237,2.74821600,-0.00338337
67.16372236,2.74421700,-0.00030758
67.41372236,2.74729300,-0.00030758
67.66372235,2.75759700,-0.00338337
67.91372234,2.77205300,-0.00891978
68.16372233,2.78604800,-0.01599409
68.41372233,2.79296900,-0.02352977
68.66372232,2.79173900,-0.03060408
68.91372231,2.78774000,-0.03583292
69.16372231,2.78451000,-0.03875492
69.41372230,2.78435700,-0.03890871
69.66372229,2.78712500,-0.03660187
69.91372228,2.79035400,-0.03183440
70.16372228,2.79066200,-0.02583661
70.41372227,2.78297200,-0.01906988
70.66372226,2.76867000,-0.01230315
70.91372226,2.75452100,-0.00645915
71.16372225,2.74590900,-0.00169168
71.41372224,2.74590900,0.00138410
71.66372224,2.75452100,0.00307579
71.91372223,2.76867000,0.00353716
72.16372222,2.78297200,0.00307579
72.41372221,2.79066200,0.00230684
72.66372221,2.79035400,0.00123032
72.91372220,2.78712500,0.00046137
73.16372219,2.78435700,0.00000000
73.41372219,2.78435700,0.00000000
73.66372218,2.78712500,0.00046137
73.91372217,2.79035400,0.00123032
74.16372216,2.79066200,0.00230684
74.41372216,2.78297200,0.00307579
74.66372215,2.76867000,0.00338337
74.91372214,2.75452100,0.00292200
75.16372214,2.74590900,0.00138410
75.41372213,2.74590900,-0.00169168
75.66372212,2.75452100,-0.00584400
75.91372212,2.76867000,-0.01091904
76.16372211,2.78297200,-0.01676304
76.41372210,2.79066200,-0.02276083
76.66372209,2.79035400,-0.02845103
76.91372209,2.78712500,-0.03352608
77.16372208,2.78435700,-0.03752461
77.41372207,2.78451000,-0.04060039
77.66372207,2.78774000,-0.04229207
77.91372206,2.79173900,-0.04290723
78.16372205,2.79296900,-0.04259966
78.41372204,2.78604800,-0.04183071
78.66372204,2.77205300,-0.04075418
78.91372203,2.75759700,-0.03983144
79.16372202,2.74729300,-0.03937008
79.41372202,2.74421700,-0.03921629
79.66372201,2.74821600,-0.03921629
79.91372200,2.75636700,-0.03937008
80.16372199,2.76405600,-0.03952387
80.41372199,2.76482500,-0.03952387
80.66372198,2.75852000,-0.03937008
80.91372197,2.75067700,-0.03937008
81.16372197,2.74544800,-0.03921629
81.41372196,2.74544800,-0.03921629
81.66372195,2.75067700,-0.03937008
81.91372195,2.75852000,-0.03937008
82.16372194,2.76482500,-0.03952387
82.41372193,2.76405600,-0.03952387
82.66372192,2.75636700,-0.03937008
82.91372192,2.74821600,-0.03937008
83.16372191,2.74421700,-0.03921629
83.41372190,2.74729300,-0.03921629
83.66372190,2.75759700,-0.03937008
83.91372189,2.77205300,-0.03937008
84.16372188,2.78604800,-0.03952387
84.41372187,2.79296900,-0.03952387
84.66372187,2.79173900,-0.03937008
84.91372186,2.78774000,-0.03937008
85.16372185,2.78451000,-0.03921629
85.41372185,2.78435700,-0.03921629
85.66372184,2.78712500,-0.03937008
85.91372183,2.79035400,-0.03937008
86.16372183,2.79066200,-0.03952387
86.41372182,2.78297200,-0.03952387
86.66372181,2.76867000,-0.03937008
86.91372180,2.75452100,-0.03921629
87.16372180,2.74590900,-0.03921629
87.41372179,2.74590900,-0.03937008
87.66372178,2.75452100,-0.03983144
87.91372178,2.76867000,-0.04075418
88.16372177,2.78297200,-0.04183071
88.41372176,2.79066200,-0.04259966
88.66372175,2.79035400,-0.04290723
88.91372175,2.78712500,-0.04229207
89.16372174,2.78435700,-0.04060039
89.41372173,2.78451000,-0.03752461
89.66372173,2.78774000,-0.03352608
89.91372172,2.79173900,-0.02845103
90.16372171,2.79296900,-0.02276083
90.41372170,2.78604800,-0.01676304
90.66372170,2.77205300,-0.01091904
90.91372169,2.75759700,-0.00584400
