Time,Channel A,Channel B
(ns),(V),(V)

-50.92666031,0.00000000,-0.04060039
-50.67666031,0.00000000,-0.04229207
-50.42666032,0.00000000,-0.04290723
-50.17666033,0.00000000,-0.04259966
-49.92666034,0.00000000,-0.04183071
-49.67666034,0.00000000,-0.04075418
-49.42666035,-0.00015379,-0.03983144
-49.17666036,0.00000000,-0.03937008
-48.92666036,0.00015379,-0.03921629
-48.67666037,0.00061516,-0.03921629
-48.42666038,0.00138410,-0.03937008
-48.17666039,0.00230684,-0.03952387
-47.92666039,0.00307579,-0.03952387
-47.67666040,0.00338337,-0.03937008
-47.42666041,0.00292200,-0.03937008
-47.17666041,0.00138410,-0.03921629
-46.92666042,-0.00169168,-0.03921629
-46.67666043,-0.00584400,-0.03937008
-46.42666043,-0.01091904,-0.03937008
-46.17666044,-0.01676304,-0.03952387
-45.92666045,-0.02276083,-0.03952387
-45.67666046,-0.02845103,-0.03937008
-45.42666046,-0.03352608,-0.03937008
-45.17666047,-0.03752461,-0.03921629
-44.92666048,-0.04060039,-0.03921629
-44.67666048,-0.04229207,-0.03937008
-44.42666049,-0.04290723,-0.03937008
-44.17666050,-0.04259966,-0.03952387
-43.92666051,-0.04183071,-0.03952387
-43.67666051,-0.04075418,-0.03937008
-43.42666052,-0.03983144,-0.03921629
-43.17666053,-0.03921629,-0.03921629
-42.92666053,-0.03921629,-0.03937008
-42.67666054,-0.03983144,-0.03983144
-42.42666055,-0.04075418,-0.04075418
-42.17666055,-0.04183071,-0.04183071
-41.92666056,-0.04259966,-0.04259966
-41.67666057,-0.04290723,-0.04290723
-41.42666058,-0.04229207,-0.04229207
-41.17666058,-0.04060039,-0.04060039
-40.92666059,-0.03752461,-0.03752461
-40.67666060,-0.03352608,-0.03291092
-40.42666060,-0.02845103,-0.02706693
-40.17666061,-0.02276083,-0.02045399
-39.92666062,-0.01676304,-0.01368725
-39.67666063,-0.01091904,-0.00753568
-39.42666063,-0.00584400,-0.00276821
-39.17666064,-0.00169168,-0.00030758
-38.92666065,0.00138410,-0.00046137
-38.67666065,0.00292200,-0.00338337
-38.42666066,0.00338337,-0.00891978
-38.17666067,0.00307579,-0.01599409
-37.92666067,0.00230684,-0.02352977
-37.67666068,0.00138410,-0.03060408
-37.42666069,0.00061516,-0.03583292
-37.17666070,0.00015379,-0.03875492
-36.92666070,0.00000000,-0.03890871
-36.67666071,-0.00015379,-0.03660187
-36.42666072,0.00000000,-0.03183440
-36.17666072,0.00000000,-0.02583661
-35.92666073,0.00000000,-0.01906988
-35.67666074,0.00000000,-0.01230315
-35.42666075,0.00000000,-0.00645915
-35.17666075,0.00000000,-0.00169168
-34.92666076,0.00000000,0.00138410
-34.67666077,0.00000000,0.00307579
-34.42666077,0.00000000,0.00353716
-34.17666078,0.00000000,0.00307579
-33.92666079,0.00000000,0.00230684
-33.67666080,0.00000000,0.00123032
-33.42666080,0.00000000,0.00046137
-33.17666081,0.00000000,0.00000000
-32.92666082,0.00000000,0.00000000
-32.67666082,0.00000000,0.00046137
-32.42666083,0.00000000,0.00123032
-32.17666084,0.00000000,0.00230684
-31.92666084,0.00000000,0.00307579
-31.67666085,0.00000000,0.00338337
-31.42666086,0.00000000,0.00292200
-31.17666087,0.00000000,0.00138410
-30.92666087,0.00000000,-0.00169168
-30.67666088,0.00000000,-0.00584400
-30.42666089,0.00000000,-0.01091904
-30.17666089,0.00000000,-0.01676304
-29.92666090,0.00000000,-0.02276083
-29.67666091,0.00000000,-0.02845103
-29.42666092,0.00000000,-0.03337229
-29.17666092,0.00000000,-0.03752461
-28.92666093,0.00000000,-0.04060039
-28.67666094,0.00000000,-0.04290723
-28.42666094,0.00000000,-0.04413754
-28.17666095,0.00000000,-0.04490650
-27.92666096,0.00000000,-0.04490650
-27.67666096,0.00000000,-0.04413754
-27.42666097,0.00000000,-0.04290723
-27.17666098,0.00000000,-0.04060039
-26.92666099,0.00000000,-0.03752461
-26.67666099,0.00000000,-0.03337229
-26.42666100,0.00000000,-0.02845103
-26.17666101,0.00000000,-0.02276083
-25.92666101,0.00000000,-0.01676304
-25.67666102,0.00000000,-0.01107283
-25.42666103,0.00000000,-0.00584400
-25.17666104,0.00000000,-0.00169168
-24.92666104,0.00000000,0.00138410
-24.67666105,0.00000000,0.00353716
-24.42666106,0.00000000,0.00476747
-24.17666106,0.00000000,0.00538263
-23.92666107,0.00000000,0.00538263
-23.67666108,0.00000000,0.00476747
-23.42666109,0.00000000,0.00353716
-23.17666109,0.00000000,0.00138410
-22.92666110,0.00000000,-0.00169168
-22.67666111,0.00000000,-0.00584400
-22.42666111,0.00000000,-0.01107283
-22.17666112,0.00000000,-0.01676304
-21.92666113,0.00000000,-0.02276083
-21.67666113,0.00000000,-0.02845103
-21.42666114,0.00000000,-0.03337229
-21.17666115,0.00000000,-0.03752461
-20.92666116,0.00000000,-0.04060039
-20.67666116,0.00000000,-0.04290723
-20.42666117,0.00000000,-0.04413754
-20.17666118,0.00000000,-0.04490650
-19.92666118,0.00000000,-0.04490650
-19.67666119,0.00000000,-0.04413754
-19.42666120,0.00000000,-0.04290723
-19.17666121,0.00000000,-0.04060039
-18.92666121,0.00000000,-0.03752461
-18.67666122,0.00000000,-0.03337229
-18.42666123,0.00000000,-0.02845103
-18.17666123,0.00000000,-0.02276083
-17.92666124,0.00000000,-0.01676304
-17.67666125,0.00000000,-0.01107283
-17.42666125,0.00000000,-0.00584400
-17.17666126,0.00000000,-0.00169168
-16.92666127,0.00000000,0.00138410
-16.67666128,0.00000000,0.00353716
-16.42666128,0.00000000,0.00476747
-16.17666129,0.00000000,0.00538263
-15.92666130,0.00000000,0.00538263
-15.67666130,0.00000000,0.00476747
-15.42666131,0.00015379,0.00369095
-15.17666132,0.00000000,0.00153789
-14.92666133,-0.00015379,-0.00184547
-14.67666133,-0.00061516,-0.00645915
-14.42666134,-0.00138410,-0.01230315
-14.17666135,-0.00230684,-0.01906988
-13.92666135,-0.00307579,-0.02583661
-13.67666136,-0.00353716,-0.03183440
-13.42666137,-0.00307579,-0.03660187
-13.17666137,-0.00138410,-0.03890871
-12.92666138,0.00169168,-0.03875492
-12.67666139,0.00645915,-0.03583292
-12.42666140,0.01230315,-0.03060408
-12.17666140,0.01906988,-0.02352977
-11.92666141,0.02583661,-0.01599409
-11.67666142,0.03183440,-0.00891978
-11.42666142,0.03629429,-0.00338337
-11.17666143,0.03875492,-0.00030758
-10.92666144,0.03906250,-0.00030758
-10.67666145,0.03706324,-0.00338337
-10.42666145,0.03321850,-0.00891978
-10.17666146,0.02798967,-0.01599409
-9.92666147,0.02214567,-0.02352977
-9.67666147,0.01584031,-0.03060408
-9.42666148,0.00938115,-0.03583292
-9.17666149,0.00307579,-0.03875492
-8.92666150,-0.00307579,-0.03890871
-8.67666150,-0.00891978,-0.03660187
-8.42666151,-0.01445620,-0.03183440
-8.17666152,-0.01983883,-0.02583661
-7.92666152,-0.02491388,-0.01906988
-7.67666153,-0.02968135,-0.01230315
-7.42666154,-0.03383366,-0.00645915
-7.17666154,-0.03752461,-0.00169168
-6.92666155,-0.04090797,0.00138410
-6.67666156,-0.04398376,0.00307579
-6.42666157,-0.04675197,0.00353716
-6.17666157,-0.04936639,0.00307579
-5.92666158,-0.05105807,0.00230684
-5.67666159,-0.05028912,0.00138410
-5.42666159,-0.04644439,0.00061516
-5.17666160,-0.04136934,0.00015379
-4.92666161,-0.03783219,0.00000000
-4.67666162,-0.03829356,-0.00015379
-4.42666162,-0.04367618,0.00000000
-4.17666163,-0.05182702,0.00000000
-3.92666164,-0.05736344,0.00000000
-3.67666164,-0.04936639,0.00000000
-3.42666165,-0.01799336,0.00000000
-3.17666166,0.03998524,0.00000000
-2.92666166,0.12241630,0.00000000
-2.67666167,0.22376350,0.00000000
-2.42666168,0.33726010,0.00000000
-2.17666169,0.45767720,0.00000000
-1.92666169,0.58424580,0.00000000
-1.67666170,0.72450170,0.00000000
-1.42666171,0.88690330,0.00000000
-1.17666171,1.07391100,0.00000000
-0.92666172,1.28383400,0.00000000
-0.67666173,1.51021200,0.00000000
-0.42666174,1.74474000,0.00000000
-0.17666174,1.97819300,0.00000000
0.07333825,2.20426300,0.00000000
0.32333824,2.42325900,0.00000000
0.57333824,2.63671900,-0.00015379
0.82333823,2.84218100,0.00000000
1.07333822,3.03595600,0.00015379
1.32333821,3.21281400,0.00061516
1.57333821,3.36768000,0.00138410
1.82333820,3.49701600,0.00230684
2.07333819,3.59959400,0.00307579
2.32333819,3.67971800,0.00338337
2.57333818,3.74231100,0.00292200
2.82333817,3.78767800,0.00123032
3.07333817,3.81413000,-0.00153789
3.32333816,3.81797500,-0.00522884
3.57333815,3.79644400,-0.00968873
3.82333814,3.74861600,-0.01460999
4.07333814,3.67648900,-0.01968504
4.32333813,3.58882900,-0.02491388
4.57333812,3.49778500,-0.03045030
4.82333812,3.41166400,-0.03614050
5.07333811,3.33523000,-0.04229207
5.32333810,3.26848500,-0.04859744
5.57333809,3.20743100,-0.05521039
5.82333809,3.14637700,-0.06166954
6.07333808,3.07809400,-0.06751353
6.32333807,3.00196900,-0.07258858
6.57333807,2.92507400,-0.07627953
6.82333806,2.85433100,-0.07812500
7.07333805,2.79558300,-0.07812500
7.32333805,2.75098400,-0.07627953
7.57333804,2.71899600,-0.07258858
7.82333803,2.69454400,-0.06751353
8.07333802,2.66793800,-0.06166954
8.32333802,2.63487300,-0.05521039
8.57333801,2.59919400,-0.04859744
8.82333800,2.56443800,-0.04229207
9.07333800,2.53444900,-0.03629429
9.32333799,2.51076500,-0.03106545
9.57333798,2.49231100,-0.02629798
9.82333797,2.47631600,-0.02183809
10.07333797,2.45663100,-0.01768578
10.32333796,2.43294800,-0.01322589
10.57333795,2.41126300,-0.00830463
10.82333795,2.39603800,-0.00292200
11.07333794,2.39034800,0.00307579
11.32333793,2.39434700,0.00984252
11.57333793,2.40542000,0.01707062
11.82333792,2.41910700,0.02429872
12.07333791,2.42941100,0.03106545
12.32333790,2.43602400,0.03660187
12.57333790,2.44479000,0.03998524
12.82333789,2.45970700,0.04029281
13.07333788,2.48308300,0.03721703
13.32333788,2.51430200,0.03060408
13.57333787,2.55013500,0.02091535
13.82333786,2.58612200,0.00907357
14.07333785,2.61595700,-0.00369095
14.32333785,2.63979500,-0.01614788
14.57333784,2.66347800,-0.02706693
14.82333783,2.69023800,-0.03583292
15.07333783,2.72222500,-0.04183071
15.32333782,2.75852000,-0.04536787
15.57333781,2.79589100,-0.04629060
15.82333780,2.82987800,-0.04567545
16.07333780,2.85463800,-0.04398376
16.32333779,2.87032500,-0.04198450
16.57333778,2.88262800,-0.04044660
16.82333778,2.89477700,-0.03937008
17.07333777,2.90892600,-0.03921629
17.32333776,2.92445900,-0.03967766
17.57333776,2.93845400,-0.04075418
17.82333775,2.94722000,-0.04183071
18.07333774,2.94568200,-0.04259966
18.32333773,2.93430100,-0.04290723
18.57333773,2.91999900,-0.04229207
18.82333772,2.90677300,-0.04060039
19.07333771,2.89754500,-0.03752461
19.32333771,2.89231700,-0.03291092
19.57333770,2.88831800,-0.02706693
19.82333769,2.88155100,-0.02045399
20.07333768,2.86617300,-0.01368725
20.32333768,2.84248900,-0.00753568
20.57333767,2.81680600,-0.00276821
20.82333766,2.79358400,-0.00030758
21.07333766,2.77589800,-0.00046137
21.32333765,2.76421000,-0.00338337
21.57333764,2.75590500,-0.00891978
21.82333764,2.74698600,-0.01599409
22.07333763,2.73160700,-0.02352977
22.32333762,2.70992300,-0.03060408
22.57333761,2.68839200,-0.03583292
22.82333761,2.67178300,-0.03875492
23.07333760,2.66317000,-0.03890871
23.32333759,2.66286300,-0.03660187
23.57333759,2.66793800,-0.03183440
23.82333758,2.67439700,-0.02583661
24.07333757,2.67516600,-0.01906988
24.32333756,2.67009100,-0.01230315
24.57333756,2.66501600,-0.00645915
24.82333755,2.66424700,-0.00184547
25.07333754,2.67039900,0.00153789
25.32333754,2.68331700,0.00369095
25.57333753,2.70038700,0.00476747
25.82333752,2.71715000,0.00538263
26.07333751,2.72730100,0.00538263
26.32333751,2.73083800,0.00476747
26.57333750,2.73360600,0.00353716
26.82333749,2.73975800,0.00138410
27.07333749,2.75144600,-0.00169168
27.32333748,2.76867000,-0.00584400
27.57333747,2.78866300,-0.01107283
27.82333747,2.80681000,-0.01676304
28.07333746,2.81711400,-0.02276083
28.32333745,2.81926700,-0.02845103
28.57333744,2.81926700,-0.03337229
28.82333744,2.82080500,-0.03752461
29.07333743,2.82680200,-0.04060039
29.32333742,2.83679900,-0.04290723
29.57333742,2.84817900,-0.04413754
29.82333741,2.85679100,-0.04490650
30.07333740,2.85679100,-0.04490650
30.32333739,2.84817900,-0.04413754
30.57333739,2.83695200,-0.04290723
30.82333738,2.82680200,-0.04060039
31.07333737,2.82065100,-0.03752461
31.32333737,2.81803600,-0.03337229
31.57333736,2.81665200,-0.02845103
31.82333735,2.81250000,-0.02276083
32.07333735,2.80065800,-0.01676304
32.32333734,2.78174200,-0.01091904
32.57333733,2.76298000,-0.00584400
32.82333732,2.74883100,-0.00169168
33.07333732,2.74283400,0.00138410
33.32333731,2.74467900,0.00292200
33.57333730,2.75159900,0.00338337
33.82333730,2.75867400,0.00307579
34.07333729,2.75959600,0.00230684
34.32333728,2.75375200,0.00123032
34.57333727,2.74714000,0.00046137
34.82333727,2.74406400,0.00000000
35.07333726,2.74714000,0.00000000
35.32333725,2.75652100,0.00046137
35.57333725,2.76943900,0.00123032
35.82333724,2.78158900,0.00230684
36.07333723,2.78681700,0.00307579
36.32333723,2.78466400,0.00338337
36.57333722,2.78158900,0.00292200
36.82333721,2.78174200,0.00138410
37.07333720,2.78789400,-0.00169168
37.32333720,2.79988900,-0.00584400
37.57333719,2.81496000,-0.01091904
37.82333718,2.82864800,-0.01676304
38.07333718,2.83464600,-0.02276083
38.32333717,2.83233900,-0.02845103
38.57333716,2.82741800,-0.03337229
38.82333715,2.82372700,-0.03752461
39.07333715,2.82372700,-0.04060039
39.32333714,2.82741800,-0.04290723
39.57333713,2.83233900,-0.04413754
39.82333713,2.83464600,-0.04490650
40.07333712,2.82864800,-0.04490650
40.32333711,2.81496000,-0.04413754
40.57333710,2.79988900,-0.04290723
40.82333710,2.78789400,-0.04060039
41.07333709,2.78174200,-0.03752461
41.32333708,2.78158900,-0.03337229
41.57333708,2.78466400,-0.02845103
41.82333707,2.78681700,-0.02276083
42.07333706,2.78158900,-0.01676304
42.32333706,2.76943900,-0.01091904
42.57333705,2.75652100,-0.00584400
42.82333704,2.74714000,-0.00169168
43.07333703,2.74421700,0.00138410
43.32333703,2.74775500,0.00292200
43.57333702,2.75498300,0.00338337
43.82333701,2.76175000,0.00307579
44.07333701,2.76175000,0.00230684
44.32333700,2.75498300,0.00138410
44.57333699,2.74760100,0.00061516
44.82333698,2.74406400,0.00015379
45.07333698,2.74729300,0.00000000
45.32333697,2.75713600,-0.00015379
45.57333696,2.77082300,0.00000000
45.82333696,2.78389500,0.00000000
46.07333695,2.78989300,0.00000000
46.32333694,2.78820100,0.00000000
46.57333694,2.78466400,0.00000000
46.82333693,2.78312600,0.00000000
47.07333692,2.78604800,0.00000000
47.32333691,2.79343000,0.00000000
47.57333691,2.80265800,0.00000000
47.82333690,2.80973200,0.00000000
48.07333689,2.80880900,0.00000000
48.32333689,2.80050500,0.00000000
48.57333688,2.79097000,0.00000000
48.82333687,2.78481800,0.00000000
49.07333686,2.78481800,0.00000000
49.32333686,2.79097000,0.00000000
49.57333685,2.80050500,0.00000000
49.82333684,2.80880900,0.00000000
50.07333684,2.80973200,0.00000000
50.32333683,2.80265800,0.00000000
50.57333682,2.79343000,-0.00015379
50.82333682,2.78604800,0.00000000
51.07333681,2.78312600,0.00015379
51.32333680,2.78466400,0.00061516
51.57333679,2.78820100,0.00138410
51.82333679,2.78989300,0.00230684
52.07333678,2.78389500,0.00307579
52.32333677,2.77082300,0.00353716
52.57333677,2.75698200,0.00307579
52.82333676,2.74714000,0.00138410
53.07333675,2.74421700,-0.00169168
53.32333674,2.74821600,-0.00645915
53.57333674,2.75636700,-0.01230315
53.82333673,2.76405600,-0.01906988
54.07333672,2.76482500,-0.02583661
54.32333672,2.75852000,-0.03183440
54.57333671,2.75067700,-0.03660187
54.82333670,2.74544800,-0.03890871
55.07333669,2.74544800,-0.03875492
55.32333669,2.75067700,-0.03583292
55.57333668,2.75852000,-0.03060408
55.82333667,2.76482500,-0.02352977
56.07333667,2.76405600,-0.01599409
56.32333666,2.75636700,-0.00891978
56.57333665,2.74821600,-0.00338337
56.82333665,2.74421700,-0.00030758
57.07333664,2.74714000,-0.00030758
57.32333663,2.75698200,-0.00338337
57.57333662,2.77082300,-0.00891978
57.82333662,2.78389500,-0.01599409
58.07333661,2.78989300,-0.02352977
58.32333660,2.78820100,-0.03060408
58.57333660,2.78466400,-0.03583292
58.82333659,2.78312600,-0.03875492
59.07333658,2.78604800,-0.03890871
59.32333657,2.79343000,-0.03660187
59.57333657,2.80265800,-0.03183440
59.82333656,2.80973200,-0.02583661
60.07333655,2.80880900,-0.01906988
60.32333655,2.80050500,-0.01230315
60.57333654,2.79097000,-0.00645915
60.82333653,2.78481800,-0.00169168
61.07333653,2.78481800,0.00138410
61.32333652,2.79097000,0.00307579
61.57333651,2.80050500,0.00353716
61.82333650,2.80880900,0.00307579
62.07333650,2.80973200,0.00230684
62.32333649,2.80265800,0.00138410
62.57333648,2.79343000,0.00061516
62.82333648,2.78604800,0.00015379
63.07333647,2.78312600,0.00000000
63.32333646,2.78466400,-0.00015379
63.57333645,2.78820100,0.00000000
63.82333645,2.78989300,0.00000000
64.07333644,2.78389500,0.00000000
64.32333643,2.77082300,0.00000000
64.57333643,2.75698200,-0.00015379
64.82333642,2.74714000,0.00000000
65.07333641,2.74421700,0.00015379
65.32333640,2.74821600,0.00061516
65.57333640,2.75636700,0.00138410
65.82333639,2.76405600,0.00230684
66.07333638,2.76482500,0.00307579
66.32333638,2.75852000,0.00338337
66.57333637,2.75067700,0.00292200
66.82333636,2.74544800,0.00138410
67.07333636,2.74544800,-0.00169168
67.32333635,2.75067700,-0.00584400
67.57333634,2.75852000,-0.01091904
67.82333633,2.76482500,-0.01676304
68.07333633,2.76405600,-0.02276083
68.32333632,2.75636700,-0.02845103
68.57333631,2.74821600,-0.03337229
68.82333631,2.74421700,-0.03752461
69.07333630,2.74714000,-0.04060039
69.32333629,2.75698200,-0.04290723
69.57333628,2.77082300,-0.04413754
69.82333628,2.78389500,-0.04490650
70.07333627,2.78989300,-0.04490650
70.32333626,2.78820100,-0.04413754
70.57333626,2.78466400,-0.04290723
70.82333625,2.78312600,-0.04060039
71.07333624,2.78604800,-0.03752461
71.32333624,2.79343000,-0.03337229
71.57333623,2.80265800,-0.02845103
71.82333622,2.80973200,-0.02276083
72.07333621,2.80880900,-0.01676304
72.32333621,2.80050500,-0.01091904
72.57333620,2.79097000,-0.00584400
72.82333619,2.78481800,-0.00169168
73.07333619,2.78481800,0.00138410
73.32333618,2.79097000,0.00292200
73.57333617,2.80050500,0.00338337
73.82333616,2.80880900,0.00307579
74.07333616,2.80973200,0.00230684
74.32333615,2.80265800,0.00138410
74.57333614,2.79343000,0.00061516
74.82333614,2.78604800,0.00015379
75.07333613,2.78312600,0.00000000
75.32333612,2.78466400,-0.00015379
75.57333612,2.78820100,0.00000000
75.82333611,2.78989300,0.00000000
76.07333610,2.78389500,0.00000000
76.32333609,2.77082300,0.00000000
76.57333609,2.75698200,0.00000000
76.82333608,2.74714000,0.00000000
77.07333607,2.74421700,0.00000000
77.32333607,2.74821600,0.00000000
77.57333606,2.75636700,0.00000000
77.82333605,2.76405600,0.00000000
78.07333604,2.76482500,0.00000000
78.32333604,2.75852000,0.00000000
78.57333603,2.75067700,-0.00015379
78.82333602,2.74544800,0.00000000
79.07333602,2.74560200,0.00015379
79.32333601,2.75129200,0.00061516
79.57333600,2.75975000,0.00138410
79.82333599,2.76713200,0.00230684
80.07333599,2.76713200,0.00307579
80.32333598,2.75975000,0.00353716
80.57333597,2.75113800,0.00307579
80.82333597,2.74560200,0.00138410
81.07333596,2.74560200,-0.00169168
81.32333595,2.75113800,-0.00645915
81.57333595,2.75975000,-0.01230315
81.82333594,2.76713200,-0.01906988
82.07333593,2.76713200,-0.02583661
82.32333592,2.75975000,-0.03183440
82.57333592,2.75129200,-0.03644808
82.82333591,2.74560200,-0.03890871
83.07333590,2.74544800,-0.03890871
83.32333590,2.75067700,-0.03644808
83.57333589,2.75852000,-0.03183440
83.82333588,2.76482500,-0.02583661
84.07333587,2.76405600,-0.01906988
84.32333587,2.75636700,-0.01230315
84.57333586,2.74821600,-0.00645915
84.82333585,2.74421700,-0.00169168
85.07333585,2.74714000,0.00138410
85.32333584,2.75698200,0.00307579
85.57333583,2.77082300,0.00353716
85.82333583,2.78389500,0.00307579
86.07333582,2.78989300,0.00230684
86.32333581,2.78820100,0.00138410
86.57333580,2.78466400,0.00061516
86.82333580,2.78312600,0.00015379
87.07333579,2.78604800,0.00000000
87.32333578,2.79343000,-0.00015379
87.57333578,2.80265800,0.00000000
87.82333577,2.80973200,0.00000000
88.07333576,2.80880900,0.00000000
88.32333575,2.80050500,0.00000000
88.57333575,2.79097000,0.00000000
88.82333574,2.78481800,0.00000000
89.07333573,2.78481800,0.00000000
89.32333573,2.79097000,0.00000000
89.57333572,2.80050500,0.00000000
89.82333571,2.80880900,0.00000000
90.07333570,2.80973200,0.00000000
90.32333570,2.80265800,0.00000000
90.57333569,2.79358400,-0.00015379
90.82333568,2.78620200,0.00000000
91.07333568,2.78297200,0.00015379
91.32333567,2.78404900,0.00061516
91.57333566,2.78681700,0.00138410
