Time,Channel A,Channel B
(ns),(V),(V)

-50.16556431,0.00015379,-0.03890871
-49.91556431,0.00061516,-0.03644808
-49.66556432,0.00138410,-0.03183440
-49.41556433,0.00230684,-0.02583661
-49.16556434,0.00307579,-0.01906988
-48.91556434,0.00353716,-0.01230315
-48.66556435,0.00307579,-0.00645915
-48.41556436,0.00138410,-0.00184547
-48.16556436,-0.00169168,0.00153789
-47.91556437,-0.00645915,0.00369095
-47.66556438,-0.01230315,0.00476747
-47.41556439,-0.01906988,0.00538263
-47.16556439,-0.02583661,0.00538263
-46.91556440,-0.03183440,0.00476747
-46.66556441,-0.03660187,0.00353716
-46.41556441,-0.03890871,0.00138410
-46.16556442,-0.03875492,-0.00169168
-45.91556443,-0.03583292,-0.00584400
-45.66556443,-0.03060408,-0.01107283
-45.41556444,-0.02352977,-0.01676304
-45.16556445,-0.01599409,-0.02276083
-44.91556446,-0.00891978,-0.02845103
-44.66556446,-0.00338337,-0.03337229
-44.41556447,-0.00030758,-0.03752461
-44.16556448,-0.00030758,-0.04060039
-43.91556448,-0.00338337,-0.04290723
-43.66556449,-0.00891978,-0.04413754
-43.41556450,-0.01599409,-0.04490650
-43.16556451,-0.02352977,-0.04490650
-42.91556451,-0.03060408,-0.04429134
-42.66556452,-0.03598671,-0.04290723
-42.41556453,-0.03890871,-0.04075418
-42.16556453,-0.03890871,-0.03737082
-41.91556454,-0.03598671,-0.03275714
-41.66556455,-0.03060408,-0.02706693
-41.41556455,-0.02352977,-0.02045399
-41.16556456,-0.01599409,-0.01368725
-40.91556457,-0.00891978,-0.00753568
-40.66556458,-0.00338337,-0.00292200
-40.41556458,-0.00030758,-0.00030758
-40.16556459,-0.00030758,-0.00030758
-39.91556460,-0.00338337,-0.00292200
-39.66556460,-0.00891978,-0.00753568
-39.41556461,-0.01599409,-0.01368725
-39.16556462,-0.02352977,-0.02045399
-38.91556463,-0.03060408,-0.02706693
-38.66556463,-0.03583292,-0.03275714
-38.41556464,-0.03875492,-0.03737082
-38.16556465,-0.03890871,-0.04075418
-37.91556465,-0.03660187,-0.04290723
-37.66556466,-0.03183440,-0.04429134
-37.41556467,-0.02583661,-0.04490650
-37.16556467,-0.01906988,-0.04490650
-36.91556468,-0.01230315,-0.04429134
-36.66556469,-0.00645915,-0.04290723
-36.41556470,-0.00169168,-0.04075418
-36.16556470,0.00138410,-0.03737082
-35.91556471,0.00307579,-0.03275714
-35.66556472,0.00353716,-0.02706693
-35.41556472,0.00307579,-0.02045399
-35.16556473,0.00230684,-0.01368725
-34.91556474,0.00123032,-0.00753568
-34.66556475,0.00046137,-0.00276821
-34.41556475,0.00000000,-0.00030758
-34.16556476,0.00000000,-0.00046137
-33.91556477,0.00046137,-0.00338337
-33.66556477,0.00123032,-0.00891978
-33.41556478,0.00230684,-0.01599409
-33.16556479,0.00307579,-0.02352977
-32.91556480,0.00353716,-0.03060408
-32.66556480,0.00307579,-0.03598671
-32.41556481,0.00138410,-0.03890871
-32.16556482,-0.00169168,-0.03890871
-31.91556482,-0.00645915,-0.03598671
-31.66556483,-0.01230315,-0.03060408
-31.41556484,-0.01906988,-0.02352977
-31.16556484,-0.02583661,-0.01599409
-30.91556485,-0.03183440,-0.00891978
-30.66556486,-0.03644808,-0.00338337
-30.41556487,-0.03890871,-0.00046137
-30.16556487,-0.03890871,-0.00030758
-29.91556488,-0.03644808,-0.00276821
-29.66556489,-0.03183440,-0.00753568
-29.41556489,-0.02583661,-0.01368725
-29.16556490,-0.01906988,-0.02045399
-28.91556491,-0.01230315,-0.02706693
-28.66556492,-0.00645915,-0.03275714
-28.41556492,-0.00169168,-0.03737082
-28.16556493,0.00138410,-0.04075418
-27.91556494,0.00307579,-0.04290723
-27.66556494,0.00353716,-0.04429134
-27.41556495,0.00307579,-0.04490650
-27.16556496,0.00230684,-0.04490650
-26.91556496,0.00138410,-0.04429134
-26.66556497,0.00061516,-0.04290723
-26.41556498,0.00015379,-0.04075418
-26.16556499,0.00000000,-0.03737082
-25.91556499,-0.00015379,-0.03275714
-25.66556500,0.00000000,-0.02706693
-25.41556501,0.00000000,-0.02045399
-25.16556501,0.00000000,-0.01368725
-24.91556502,0.00000000,-0.00753568
-24.66556503,0.00000000,-0.00276821
-24.41556504,0.00000000,-0.00030758
-24.16556504,0.00000000,-0.00046137
-23.91556505,0.00000000,-0.00338337
-23.66556506,0.00000000,-0.00891978
-23.41556506,0.00000000,-0.01599409
-23.16556507,0.00000000,-0.02352977
-22.91556508,0.00000000,-0.03060408
-22.66556509,0.00000000,-0.03583292
-22.41556509,0.00000000,-0.03875492
-22.16556510,0.00000000,-0.03890871
-21.91556511,0.00000000,-0.03660187
-21.66556511,0.00000000,-0.03183440
-21.41556512,0.00000000,-0.02583661
-21.16556513,0.00000000,-0.01906988
-20.91556513,0.00000000,-0.01230315
-20.66556514,0.00000000,-0.00645915
-20.41556515,0.00000000,-0.00169168
-20.16556516,0.00000000,0.00138410
-19.91556516,0.00000000,0.00307579
-19.66556517,0.00000000,0.00353716
-19.41556518,0.00000000,0.00307579
-19.16556518,0.00000000,0.00230684
-18.91556519,0.00000000,0.00138410
-18.66556520,0.00000000,0.00061516
-18.41556521,0.00000000,0.00015379
-18.16556521,0.00000000,0.00000000
-17.91556522,0.00000000,-0.00015379
-17.66556523,0.00000000,0.00000000
-17.41556523,0.00000000,0.00000000
-17.16556524,0.00000000,0.00000000
-16.91556525,0.00000000,0.00000000
-16.66556525,0.00000000,0.00000000
-16.41556526,0.00000000,0.00000000
-16.16556527,0.00000000,0.00000000
-15.91556528,0.00000000,0.00000000
-15.66556528,0.00000000,0.00000000
-15.41556529,0.00000000,0.00000000
-15.16556530,0.00000000,0.00000000
-14.91556530,0.00000000,0.00000000
-14.66556531,0.00000000,0.00000000
-14.41556532,0.00000000,0.00000000
-14.16556533,0.00000000,0.00000000
-13.91556533,0.00000000,0.00000000
-13.66556534,0.00000000,0.00000000
-13.41556535,0.00000000,0.00000000
-13.16556535,0.00000000,0.00000000
-12.91556536,0.00000000,0.00000000
-12.66556537,0.00000000,-0.00015379
-12.41556537,0.00000000,0.00000000
-12.16556538,0.00000000,0.00015379
-11.91556539,0.00000000,0.00061516
-11.66556540,0.00000000,0.00138410
-11.41556540,0.00000000,0.00230684
-11.16556541,0.00000000,0.00307579
-10.91556542,0.00000000,0.00338337
-10.66556542,-0.00015379,0.00292200
-10.41556543,0.00000000,0.00138410
-10.16556544,0.00015379,-0.00169168
-9.91556545,0.00061516,-0.00584400
-9.66556545,0.00138410,-0.01091904
-9.41556546,0.00230684,-0.01676304
-9.16556547,0.00307579,-0.02276083
-8.91556547,0.00353716,-0.02845103
-8.66556548,0.00307579,-0.03352608
-8.41556549,0.00138410,-0.03752461
-8.16556550,-0.00169168,-0.04060039
-7.91556550,-0.00645915,-0.04229207
-7.66556551,-0.01230315,-0.04290723
-7.41556552,-0.01906988,-0.04259966
-7.16556552,-0.02583661,-0.04183071
-6.91556553,-0.03168061,-0.04075418
-6.66556554,-0.03583292,-0.03983144
-6.41556554,-0.03829356,-0.03921629
-6.16556555,-0.03983144,-0.03921629
-5.91556556,-0.04121555,-0.03983144
-5.66556557,-0.04244586,-0.04075418
-5.41556557,-0.04367618,-0.04183071
-5.16556558,-0.04367618,-0.04259966
-4.91556559,-0.03875492,-0.04290723
-4.66556559,-0.02691314,-0.04229207
-4.41556560,-0.00953494,-0.04060039
-4.16556561,0.00953494,-0.03752461
-3.91556562,0.02660556,-0.03291092
-3.66556562,0.03967766,-0.02706693
-3.41556563,0.05013533,-0.02045399
-3.16556564,0.06428396,-0.01368725
-2.91556564,0.09550320,-0.00753568
-2.66556565,0.15655760,-0.00276821
-2.41556566,0.25267600,-0.00030758
-2.16556566,0.38262800,-0.00046137
-1.91556567,0.54056970,-0.00338337
-1.66556568,0.71727370,-0.00891978
-1.41556569,0.90382010,-0.01599409
-1.16556569,1.09498000,-0.02352977
-0.91556570,1.29367600,-0.03060408
-0.66556571,1.50467500,-0.03598671
-0.41556571,1.72767000,-0.03890871
-0.16556572,1.96004600,-0.03890871
0.08443427,2.19611200,-0.03598671
0.33443426,2.42864200,-0.03060408
0.58443426,2.65040600,-0.02352977
0.83443425,2.85602200,-0.01599409
1.08443424,3.04595200,-0.00891978
1.33443424,3.22127200,-0.00338337
1.58443423,3.37936800,-0.00046137
1.83443422,3.51593300,-0.00030758
2.08443421,3.62681500,-0.00276821
2.33443421,3.70786200,-0.00753568
2.58443420,3.75799700,-0.01368725
2.83443419,3.77875900,-0.02045399
3.08443419,3.77783600,-0.02706693
3.33443418,3.76353400,-0.03291092
3.58443417,3.74000400,-0.03752461
3.83443417,3.70770800,-0.04044660
4.08443416,3.66464700,-0.04167692
4.33443415,3.60713000,-0.04152313
4.58443414,3.53284900,-0.04029281
4.83443414,3.44088300,-0.03875492
5.08443413,3.33753700,-0.03721703
5.33443412,3.23419000,-0.03690945
5.58443412,3.13961000,-0.03798597
5.83443411,3.05979300,-0.04090797
6.08443410,2.99612500,-0.04567545
6.33443409,2.94491300,-0.05167323
6.58443409,2.90016000,-0.05859375
6.83443408,2.85217800,-0.06536049
7.08443407,2.79773600,-0.07120448
7.33443407,2.74175700,-0.07551058
7.58443406,2.68946900,-0.07797121
7.83443405,2.64594600,-0.07843257
8.08443405,2.61349700,-0.07689469
8.33443404,2.59119700,-0.07397269
8.58443403,2.57474200,-0.06982037
8.83443402,2.55582500,-0.06474533
9.08443402,2.53121900,-0.05874754
9.33443401,2.50492100,-0.05167323
9.58443400,2.48062300,-0.04367618
9.83443400,2.46139900,-0.03444882
10.08443399,2.44817300,-0.02399114
10.33443398,2.43956100,-0.01261073
10.58443397,2.43248700,-0.00061516
10.83443397,2.42141400,0.01122662
11.08443396,2.40665000,0.02214567
11.33443395,2.39496200,0.03106545
11.58443395,2.39050200,0.03737082
11.83443394,2.39588500,0.04029281
12.08443393,2.41111000,0.03983144
12.33443393,2.43294800,0.03660187
12.58443392,2.45663100,0.03106545
12.83443391,2.47631600,0.02429872
13.08443390,2.49200300,0.01707062
13.33443390,2.50968900,0.00999631
13.58443389,2.53368000,0.00322958
13.83443388,2.56597500,-0.00307579
14.08443388,2.60611500,-0.00891978
14.33443387,2.65086700,-0.01445620
14.58443386,2.69469700,-0.01983883
14.83443385,2.73145300,-0.02491388
15.08443385,2.76005800,-0.02983514
15.33443384,2.78543300,-0.03414124
15.58443383,2.81034700,-0.03767840
15.83443383,2.83633700,-0.04044660
16.08443382,2.86232800,-0.04213829
16.33443381,2.88601100,-0.04290723
16.58443380,2.90354300,-0.04259966
16.83443380,2.91031000,-0.04183071
17.08443379,2.90815700,-0.04075418
17.33443378,2.90354300,-0.03983144
17.58443378,2.90123700,-0.03921629
17.83443377,2.90339000,-0.03921629
18.08443376,2.90969500,-0.03983144
18.33443376,2.91723000,-0.04075418
18.58443375,2.92122900,-0.04183071
18.83443374,2.91615400,-0.04259966
19.08443373,2.90200500,-0.04290723
19.33443373,2.88478100,-0.04229207
19.58443372,2.86894100,-0.04060039
19.83443371,2.85709900,-0.03752461
20.08443371,2.84971700,-0.03352608
20.33443370,2.84418100,-0.02845103
20.58443369,2.83664500,-0.02276083
20.83443368,2.82142000,-0.01676304
21.08443368,2.79835100,-0.01091904
21.33443367,2.77405300,-0.00584400
21.58443366,2.75298400,-0.00169168
21.83443366,2.73837400,0.00138410
22.08443365,2.73022300,0.00292200
22.33443364,2.72622400,0.00338337
22.58443364,2.72207200,0.00307579
22.83443363,2.71176800,0.00230684
23.08443362,2.69546600,0.00138410
23.33443361,2.67962600,0.00061516
23.58443361,2.66870700,0.00015379
23.83443360,2.66624600,0.00000000
24.08443359,2.67209000,-0.00015379
24.33443359,2.68377800,0.00000000
24.58443358,2.69638900,0.00000000
24.83443357,2.70315600,0.00000000
25.08443356,2.70331000,0.00000000
25.33443356,2.70207900,-0.00015379
25.58443355,2.70331000,0.00000000
25.83443354,2.70915400,0.00015379
26.08443354,2.71961100,0.00061516
26.33443353,2.73222200,0.00138410
26.58443352,2.74298700,0.00230684
26.83443351,2.74637000,0.00307579
27.08443351,2.74314100,0.00338337
27.33443350,2.73991100,0.00292200
27.58443349,2.74144900,0.00138410
27.83443349,2.75021500,-0.00169168
28.08443348,2.76636300,-0.00584400
28.33443347,2.78651000,-0.01091904
28.58443347,2.80604100,-0.01676304
28.83443346,2.81788300,-0.02276083
29.08443345,2.82142000,-0.02845103
29.33443344,2.82157400,-0.03337229
29.58443344,2.82203500,-0.03752461
29.83443343,2.82511100,-0.04060039
30.08443342,2.83034000,-0.04290723
30.33443342,2.83587600,-0.04413754
30.58443341,2.83772100,-0.04490650
30.83443340,2.83095500,-0.04490650
31.08443339,2.81634500,-0.04413754
31.33443339,2.80050500,-0.04290723
31.58443338,2.78804800,-0.04060039
31.83443337,2.78174200,-0.03752461
32.08443337,2.78158900,-0.03337229
32.33443336,2.78466400,-0.02845103
32.58443335,2.78681700,-0.02276083
32.83443335,2.78158900,-0.01676304
33.08443334,2.76943900,-0.01091904
33.33443333,2.75652100,-0.00584400
33.58443332,2.74714000,-0.00169168
33.83443332,2.74421700,0.00138410
34.08443331,2.74775500,0.00292200
34.33443330,2.75498300,0.00338337
34.58443330,2.76175000,0.00307579
34.83443329,2.76175000,0.00230684
35.08443328,2.75498300,0.00123032
35.33443327,2.74760100,0.00046137
35.58443327,2.74406400,0.00000000
35.83443326,2.74729300,0.00000000
36.08443325,2.75713600,0.00046137
36.33443325,2.77082300,0.00123032
36.58443324,2.78389500,0.00230684
36.83443323,2.78989300,0.00307579
37.08443323,2.78820100,0.00338337
37.33443322,2.78466400,0.00292200
37.58443321,2.78312600,0.00138410
37.83443320,2.78620200,-0.00169168
38.08443320,2.79404500,-0.00584400
38.33443319,2.80404100,-0.01091904
38.58443318,2.81188500,-0.01676304
38.83443318,2.81188500,-0.02276083
39.08443317,2.80404100,-0.02845103
39.33443316,2.79404500,-0.03337229
39.58443315,2.78620200,-0.03752461
39.83443315,2.78312600,-0.04060039
40.08443314,2.78466400,-0.04290723
40.33443313,2.78820100,-0.04413754
40.58443313,2.78989300,-0.04490650
40.83443312,2.78389500,-0.04490650
41.08443311,2.77082300,-0.04413754
41.33443310,2.75713600,-0.04290723
41.58443310,2.74729300,-0.04060039
41.83443309,2.74406400,-0.03752461
42.08443308,2.74760100,-0.03337229
42.33443308,2.75498300,-0.02845103
42.58443307,2.76175000,-0.02276083
42.83443306,2.76175000,-0.01676304
43.08443306,2.75498300,-0.01107283
43.33443305,2.74760100,-0.00584400
43.58443304,2.74406400,-0.00169168
43.83443303,2.74729300,0.00138410
44.08443303,2.75713600,0.00353716
44.33443302,2.77082300,0.00476747
44.58443301,2.78389500,0.00538263
44.83443301,2.78989300,0.00538263
45.08443300,2.78820100,0.00476747
45.33443299,2.78466400,0.00369095
45.58443298,2.78312600,0.00153789
45.83443298,2.78604800,-0.00184547
46.08443297,2.79343000,-0.00645915
46.33443296,2.80265800,-0.01230315
46.58443296,2.80973200,-0.01906988
46.83443295,2.80880900,-0.02583661
47.08443294,2.80050500,-0.03183440
47.33443294,2.79097000,-0.03644808
47.58443293,2.78481800,-0.03890871
47.83443292,2.78481800,-0.03890871
48.08443291,2.79097000,-0.03644808
48.33443291,2.80050500,-0.03183440
48.58443290,2.80880900,-0.02583661
48.83443289,2.80973200,-0.01906988
49.08443289,2.80265800,-0.01230315
49.33443288,2.79343000,-0.00645915
49.58443287,2.78604800,-0.00169168
49.83443286,2.78312600,0.00138410
50.08443286,2.78466400,0.00307579
50.33443285,2.78820100,0.00353716
50.58443284,2.78989300,0.00307579
50.83443284,2.78389500,0.00230684
51.08443283,2.77082300,0.00123032
51.33443282,2.75698200,0.00046137
51.58443282,2.74714000,0.00000000
51.83443281,2.74421700,0.00000000
52.08443280,2.74821600,0.00046137
52.33443279,2.75636700,0.00123032
52.58443279,2.76405600,0.00230684
52.83443278,2.76482500,0.00307579
53.08443277,2.75852000,0.00338337
53.33443277,2.75067700,0.00292200
53.58443276,2.74544800,0.00138410
53.83443275,2.74544800,-0.00169168
54.08443274,2.75067700,-0.00584400
54.33443274,2.75852000,-0.01091904
54.58443273,2.76482500,-0.01676304
54.83443272,2.76405600,-0.02276083
55.08443272,2.75636700,-0.02845103
55.33443271,2.74821600,-0.03337229
55.58443270,2.74421700,-0.03752461
55.83443269,2.74714000,-0.04060039
56.08443269,2.75698200,-0.04290723
56.33443268,2.77082300,-0.04413754
56.58443267,2.78389500,-0.04490650
56.83443267,2.78989300,-0.04490650
57.08443266,2.78820100,-0.04413754
57.33443265,2.78466400,-0.04290723
57.58443265,2.78312600,-0.04060039
57.83443264,2.78604800,-0.03752461
58.08443263,2.79343000,-0.03337229
58.33443262,2.80265800,-0.02845103
58.58443262,2.80973200,-0.02276083
58.83443261,2.80880900,-0.01676304
59.08443260,2.80050500,-0.01107283
59.33443260,2.79097000,-0.00584400
59.58443259,2.78481800,-0.00169168
59.83443258,2.78481800,0.00138410
60.08443257,2.79097000,0.00353716
60.33443257,2.80050500,0.00476747
60.58443256,2.80880900,0.00538263
60.83443255,2.80973200,0.00538263
61.08443255,2.80265800,0.00476747
61.33443254,2.79343000,0.00369095
61.58443253,2.78604800,0.00153789
61.83443253,2.78312600,-0.00184547
62.08443252,2.78466400,-0.00645915
62.33443251,2.78820100,-0.01230315
62.58443250,2.78989300,-0.01906988
62.83443250,2.78389500,-0.02583661
63.08443249,2.77082300,-0.03183440
63.33443248,2.75698200,-0.03660187
63.58443248,2.74714000,-0.03890871
63.83443247,2.74421700,-0.03875492
64.08443246,2.74821600,-0.03583292
64.33443245,2.75636700,-0.03060408
64.58443245,2.76405600,-0.02352977
64.83443244,2.76482500,-0.01599409
65.08443243,2.75852000,-0.00891978
65.33443243,2.75067700,-0.00338337
65.58443242,2.74544800,-0.00046137
65.83443241,2.74544800,-0.00030758
66.08443240,2.75067700,-0.00276821
66.33443240,2.75852000,-0.00753568
66.58443239,2.76482500,-0.01368725
66.83443238,2.76405600,-0.02045399
67.08443238,2.75636700,-0.02706693
67.33443237,2.74821600,-0.03291092
67.58443236,2.74421700,-0.03752461
67.83443236,2.74729300,-0.04060039
68.08443235,2.75759700,-0.04229207
68.33443234,2.77205300,-0.04290723
68.58443233,2.78604800,-0.04259966
68.83443233,2.79296900,-0.04183071
69.08443232,2.79173900,-0.04075418
69.33443231,2.78774000,-0.03983144
69.58443231,2.78451000,-0.03921629
69.83443230,2.78435700,-0.03921629
70.08443229,2.78712500,-0.03983144
70.33443228,2.79035400,-0.04075418
70.58443228,2.79066200,-0.04183071
70.83443227,2.78297200,-0.04259966
71.08443226,2.76867000,-0.04290723
71.33443226,2.75452100,-0.04229207
71.58443225,2.74590900,-0.04060039
71.83443224,2.74590900,-0.03752461
72.08443224,2.75452100,-0.03352608
72.33443223,2.76867000,-0.02845103
72.58443222,2.78297200,-0.02276083
72.83443221,2.79066200,-0.01676304
73.08443221,2.79035400,-0.01091904
73.33443220,2.78712500,-0.00584400
73.58443219,2.78435700,-0.00169168
73.83443219,2.78451000,0.00138410
74.08443218,2.78774000,0.00292200
74.33443217,2.79173900,0.00338337
74.58443216,2.79296900,0.00307579
74.83443216,2.78604800,0.00230684
75.08443215,2.77205300,0.00138410
75.33443214,2.75759700,0.00061516
75.58443214,2.74729300,0.00015379
75.83443213,2.74421700,0.00000000
76.08443212,2.74821600,-0.00015379
76.33443212,2.75636700,0.00000000
76.58443211,2.76405600,0.00000000
76.83443210,2.76482500,0.00000000
77.08443209,2.75852000,0.00000000
77.33443209,2.75067700,0.00000000
77.58443208,2.74544800,0.00000000
77.83443207,2.74560200,0.00000000
78.08443207,2.75129200,0.00000000
78.33443206,2.75975000,0.00000000
78.58443205,2.76713200,0.00000000
78.83443204,2.76713200,0.00000000
79.08443204,2.75975000,0.00000000
79.33443203,2.75113800,-0.00015379
79.58443202,2.74560200,0.00000000
79.83443202,2.74560200,0.00015379
80.08443201,2.75113800,0.00061516
80.33443200,2.75975000,0.00138410
80.58443199,2.76713200,0.00230684
80.83443199,2.76713200,0.00307579
81.08443198,2.75975000,0.00353716
81.33443197,2.75129200,0.00307579
81.58443197,2.74560200,0.00138410
81.83443196,2.74544800,-0.00169168
82.08443195,2.75067700,-0.00645915
82.33443195,2.75852000,-0.01230315
82.58443194,2.76482500,-0.01906988
82.83443193,2.76405600,-0.02583661
83.08443192,2.75636700,-0.03183440
83.33443192,2.74821600,-0.03644808
83.58443191,2.74421700,-0.03890871
83.83443190,2.74729300,-0.03890871
84.08443190,2.75759700,-0.03644808
84.33443189,2.77205300,-0.03183440
84.58443188,2.78604800,-0.02583661
84.83443187,2.79296900,-0.01906988
85.08443187,2.79173900,-0.01230315
85.33443186,2.78774000,-0.00645915
85.58443185,2.78451000,-0.00169168
85.83443185,2.78435700,0.00138410
86.08443184,2.78712500,0.00307579
86.33443183,2.79035400,0.00353716
86.58443183,2.79066200,0.00307579
86.83443182,2.78297200,0.00230684
87.08443181,2.76867000,0.00138410
87.33443180,2.75452100,0.00061516
87.58443180,2.74590900,0.00015379
87.83443179,2.74590900,0.00000000
88.08443178,2.75452100,-0.00015379
88.33443178,2.76867000,0.00000000
88.58443177,2.78297200,0.00000000
88.83443176,2.79066200,0.00000000
89.08443175,2.79035400,0.00000000
89.33443175,2.78712500,-0.00015379
89.58443174,2.78435700,0.00000000
89.83443173,2.78451000,0.00015379
90.08443173,2.78774000,0.00061516
90.33443172,2.79173900,0.00138410
90.58443171,2.79296900,0.00230684
90.83443170,2.78604800,0.00307579
91.08443170,2.77205300,0.00338337
91.33443169,2.75759700,0.00292200
91.58443168,2.74729300,0.00138410
91.83443168,2.74421700,-0.00169168
