Time,Channel A,Channel B
(ns),(V),(V)

-51.24761231,0.00000000,-0.03737082
-50.99761231,0.00046137,-0.03275714
-50.74761232,0.00123032,-0.02706693
-50.49761233,0.00230684,-0.02045399
-50.24761234,0.00307579,-0.01368725
-49.99761234,0.00353716,-0.00753568
-49.74761235,0.00307579,-0.00276821
-49.49761236,0.00138410,-0.00030758
-49.24761236,-0.00169168,-0.00046137
-48.99761237,-0.00645915,-0.00338337
-48.74761238,-0.01230315,-0.00891978
-48.49761239,-0.01906988,-0.01599409
-48.24761239,-0.02583661,-0.02352977
-47.99761240,-0.03183440,-0.03060408
-47.74761241,-0.03660187,-0.03583292
-47.49761241,-0.03890871,-0.03875492
-47.24761242,-0.03875492,-0.03890871
-46.99761243,-0.03583292,-0.03660187
-46.74761243,-0.03060408,-0.03183440
-46.49761244,-0.02352977,-0.02583661
-46.24761245,-0.01599409,-0.01906988
-45.99761246,-0.00891978,-0.01230315
-45.74761246,-0.00338337,-0.00645915
-45.49761247,-0.00030758,-0.00169168
-45.24761248,-0.00030758,0.00138410
-44.99761248,-0.00338337,0.00307579
-44.74761249,-0.00891978,0.00353716
-44.49761250,-0.01599409,0.00307579
-44.24761251,-0.02352977,0.00230684
-43.99761251,-0.03060408,0.00138410
-43.74761252,-0.03583292,0.00061516
-43.49761253,-0.03875492,0.00015379
-43.24761253,-0.03890871,0.00000000
-42.99761254,-0.03660187,-0.00015379
-42.74761255,-0.03183440,0.00000000
-42.49761255,-0.02583661,0.00000000
-42.24761256,-0.01906988,0.00000000
-41.99761257,-0.01230315,0.00000000
-41.74761258,-0.00645915,0.00000000
-41.49761258,-0.00169168,0.00000000
-41.24761259,0.00138410,0.00000000
-40.99761260,0.00307579,0.00000000
-40.74761260,0.00353716,0.00000000
-40.49761261,0.00307579,0.00000000
-40.24761262,0.00230684,0.00000000
-39.99761263,0.00138410,0.00000000
-39.74761263,0.00061516,0.00000000
-39.49761264,0.00015379,0.00000000
-39.24761265,0.00000000,0.00000000
-38.99761265,-0.00015379,0.00000000
-38.74761266,0.00000000,0.00000000
-38.49761267,0.00000000,0.00000000
-38.24761267,0.00000000,0.00000000
-37.99761268,0.00000000,0.00000000
-37.74761269,0.00000000,-0.00015379
-37.49761270,0.00000000,0.00000000
-37.24761270,0.00000000,0.00015379
-36.99761271,0.00000000,0.00061516
-36.74761272,0.00000000,0.00138410
-36.49761272,0.00000000,0.00230684
-36.24761273,0.00000000,0.00307579
-35.99761274,0.00000000,0.00338337
-35.74761275,-0.00015379,0.00292200
-35.49761275,0.00000000,0.00138410
-35.24761276,0.00015379,-0.00169168
-34.99761277,0.00061516,-0.00584400
-34.74761277,0.00138410,-0.01091904
-34.49761278,0.00230684,-0.01676304
-34.24761279,0.00307579,-0.02276083
-33.99761280,0.00338337,-0.02845103
-33.74761280,0.00292200,-0.03337229
-33.49761281,0.00138410,-0.03752461
-33.24761282,-0.00169168,-0.04060039
-32.99761282,-0.00584400,-0.04290723
-32.74761283,-0.01091904,-0.04413754
-32.49761284,-0.01676304,-0.04490650
-32.24761284,-0.02276083,-0.04490650
-31.99761285,-0.02845103,-0.04413754
-31.74761286,-0.03337229,-0.04290723
-31.49761287,-0.03752461,-0.04060039
-31.24761287,-0.04060039,-0.03752461
-30.99761288,-0.04290723,-0.03337229
-30.74761289,-0.04413754,-0.02845103
-30.49761289,-0.04490650,-0.02276083
-30.24761290,-0.04490650,-0.01676304
-29.99761291,-0.04413754,-0.01091904
-29.74761292,-0.04275344,-0.00584400
-29.49761292,-0.04060039,-0.00169168
-29.24761293,-0.03767840,0.00138410
-28.99761294,-0.03398745,0.00292200
-28.74761294,-0.02968135,0.00338337
-28.49761295,-0.02491388,0.00307579
-28.24761296,-0.01983883,0.00230684
-27.99761296,-0.01445620,0.00138410
-27.74761297,-0.00891978,0.00061516
-27.49761298,-0.00307579,0.00015379
-27.24761299,0.00307579,0.00000000
-26.99761299,0.00938115,-0.00015379
-26.74761300,0.01584031,0.00000000
-26.49761301,0.02214567,0.00000000
-26.24761301,0.02798967,0.00000000
-25.99761302,0.03321850,0.00000000
-25.74761303,0.03706324,-0.00015379
-25.49761304,0.03906250,0.00000000
-25.24761304,0.03875492,0.00015379
-24.99761305,0.03629429,0.00061516
-24.74761306,0.03183440,0.00138410
-24.49761306,0.02583661,0.00230684
-24.24761307,0.01906988,0.00307579
-23.99761308,0.01230315,0.00353716
-23.74761309,0.00645915,0.00307579
-23.49761309,0.00169168,0.00138410
-23.24761310,-0.00138410,-0.00169168
-22.99761311,-0.00307579,-0.00645915
-22.74761311,-0.00353716,-0.01230315
-22.49761312,-0.00307579,-0.01906988
-22.24761313,-0.00230684,-0.02583661
-21.99761313,-0.00138410,-0.03183440
-21.74761314,-0.00061516,-0.03644808
-21.49761315,-0.00015379,-0.03890871
-21.24761316,0.00000000,-0.03890871
-20.99761316,0.00015379,-0.03644808
-20.74761317,0.00000000,-0.03183440
-20.49761318,0.00000000,-0.02583661
-20.24761318,0.00000000,-0.01906988
-19.99761319,0.00000000,-0.01230315
-19.74761320,0.00000000,-0.00645915
-19.49761321,0.00000000,-0.00184547
-19.24761321,0.00000000,0.00153789
-18.99761322,0.00000000,0.00369095
-18.74761323,0.00000000,0.00476747
-18.49761323,0.00000000,0.00538263
-18.24761324,0.00000000,0.00538263
-17.99761325,0.00000000,0.00476747
-17.74761325,0.00000000,0.00369095
-17.49761326,0.00000000,0.00153789
-17.24761327,0.00000000,-0.00184547
-16.99761328,0.00000000,-0.00645915
-16.74761328,0.00000000,-0.01230315
-16.49761329,0.00000000,-0.01906988
-16.24761330,0.00000000,-0.02583661
-15.99761330,0.00000000,-0.03183440
-15.74761331,0.00000000,-0.03660187
-15.49761332,0.00000000,-0.03890871
-15.24761333,0.00000000,-0.03875492
-14.99761333,0.00000000,-0.03583292
-14.74761334,0.00000000,-0.03060408
-14.49761335,0.00000000,-0.02352977
-14.24761335,0.00000000,-0.01599409
-13.99761336,0.00000000,-0.00891978
-13.74761337,0.00000000,-0.00338337
-13.49761337,0.00000000,-0.00030758
-13.24761338,0.00000000,-0.00030758
-12.99761339,0.00000000,-0.00338337
-12.74761340,0.00000000,-0.00891978
-12.49761340,0.00000000,-0.01599409
-12.24761341,0.00000000,-0.02352977
-11.99761342,0.00000000,-0.03060408
-11.74761342,0.00000000,-0.03598671
-11.49761343,0.00000000,-0.03890871
-11.24761344,0.00000000,-0.03890871
-10.99761345,0.00000000,-0.03598671
-10.74761345,0.00000000,-0.03060408
-10.49761346,0.00000000,-0.02352977
-10.24761347,0.00000000,-0.01599409
-9.99761347,0.00000000,-0.00891978
-9.74761348,0.00000000,-0.00338337
-9.49761349,0.00000000,-0.00030758
-9.24761350,0.00000000,-0.00030758
-8.99761350,0.00000000,-0.00338337
-8.74761351,0.00000000,-0.00891978
-8.49761352,0.00000000,-0.01599409
-8.24761352,0.00000000,-0.02352977
-7.99761353,0.00000000,-0.03060408
-7.74761354,0.00000000,-0.03598671
-7.49761354,0.00000000,-0.03890871
-7.24761355,0.00000000,-0.03890871
-6.99761356,0.00000000,-0.03598671
-6.74761357,0.00000000,-0.03060408
-6.49761357,0.00000000,-0.02352977
-6.24761358,0.00000000,-0.01599409
-5.99761359,0.00061516,-0.00891978
-5.74761359,0.00184547,-0.00338337
-5.49761360,0.00153789,-0.00046137
-5.24761361,-0.00276821,-0.00030758
-4.99761362,-0.01291831,-0.00276821
-4.74761362,-0.02921998,-0.00753568
-4.49761363,-0.04921260,-0.01368725
-4.24761364,-0.06766732,-0.02045399
-3.99761364,-0.07458784,-0.02706693
-3.74761365,-0.06120817,-0.03291092
-3.49761366,-0.02568282,-0.03752461
-3.24761366,0.03014272,-0.04060039
-2.99761367,0.10088580,-0.04229207
-2.74761368,0.18070250,-0.04290723
-2.49761369,0.26636320,-0.04259966
-2.24761369,0.35894440,-0.04183071
-1.99761370,0.46767350,-0.04075418
-1.74761371,0.60300820,-0.03983144
-1.49761371,0.76863930,-0.03921629
-1.24761372,0.96333660,-0.03921629
-0.99761373,1.18125600,-0.03983144
-0.74761374,1.41301700,-0.04075418
-0.49761374,1.64908300,-0.04183071
-0.24761375,1.88207400,-0.04259966
0.00238624,2.11122100,-0.04290723
0.25238624,2.33790600,-0.04229207
0.50238623,2.55905500,-0.04060039
0.75238622,2.77051500,-0.03752461
1.00238621,2.96659700,-0.03291092
1.25238621,3.14237800,-0.02706693
1.50238620,3.29386100,-0.02045399
1.75238619,3.42042900,-0.01368725
2.00238619,3.52639000,-0.00753568
2.25238618,3.61728000,-0.00292200
2.50238617,3.69325200,-0.00030758
2.75238617,3.75230700,-0.00030758
3.00238616,3.79075400,-0.00292200
3.25238615,3.80474900,-0.00753568
3.50238614,3.79244600,-0.01368725
3.75238614,3.75430600,-0.02045399
4.00238613,3.69755800,-0.02706693
4.25238612,3.63189000,-0.03291092
4.50238612,3.56330000,-0.03752461
4.75238611,3.49471000,-0.04044660
5.00238610,3.42550500,-0.04167692
5.25238609,3.35260800,-0.04152313
5.50238609,3.27263800,-0.04029281
5.75238608,3.18144100,-0.03875492
6.00238607,3.08224700,-0.03721703
6.25238607,2.98535900,-0.03675566
6.50238606,2.89923700,-0.03783219
6.75238605,2.83049300,-0.04106176
7.00238605,2.78097300,-0.04613681
7.25238604,2.74790900,-0.05305733
7.50238603,2.72484000,-0.06074680
7.75238602,2.70069500,-0.06843627
8.00238602,2.67024500,-0.07474163
8.25238601,2.63656500,-0.07858637
8.50238600,2.60319300,-0.07935531
8.75238600,2.57412600,-0.07658711
9.00238599,2.55136500,-0.07058932
9.25238598,2.53444900,-0.06166954
9.50238597,2.52030000,-0.05075049
9.75238597,2.50230700,-0.03890871
10.00238596,2.47923800,-0.02675935
10.25238595,2.45647800,-0.01522515
10.50238595,2.43786900,-0.00476747
10.75238594,2.42633500,0.00445989
11.00238593,2.42202900,0.01245694
11.25238593,2.42279800,0.01922367
11.50238592,2.42510500,0.02522146
11.75238591,2.42341300,0.03029650
12.00238590,2.41849200,0.03444882
12.25238590,2.41710800,0.03752461
12.50238589,2.42372100,0.03906250
12.75238588,2.44125200,0.03890871
13.00238588,2.46908800,0.03690945
13.25238587,2.50384500,0.03321850
13.50238586,2.54044700,0.02798967
13.75238585,2.57197400,0.02214567
14.00238585,2.59781000,0.01584031
14.25238584,2.62303100,0.00938115
14.50238583,2.65086700,0.00307579
14.75238583,2.68300900,-0.00307579
15.00238582,2.71884200,-0.00891978
15.25238581,2.75529000,-0.01445620
15.50238580,2.78820100,-0.01983883
15.75238580,2.81203900,-0.02491388
16.00238579,2.82757100,-0.02983514
16.25238578,2.84049000,-0.03414124
16.50238578,2.85433100,-0.03767840
16.75238577,2.87124800,-0.04044660
17.00238576,2.89031700,-0.04213829
17.25238576,2.90877200,-0.04290723
17.50238575,2.92230600,-0.04259966
17.75238574,2.92568900,-0.04183071
18.00238573,2.91984500,-0.04075418
18.25238573,2.91107900,-0.03983144
18.50238572,2.90385100,-0.03921629
18.75238571,2.90062100,-0.03921629
19.00238571,2.90169800,-0.03983144
19.25238570,2.90415900,-0.04075418
19.50238569,2.90369700,-0.04183071
19.75238568,2.89431600,-0.04259966
20.00238568,2.87570700,-0.04290723
20.25238567,2.85386900,-0.04229207
20.50238566,2.83264600,-0.04060039
20.75238566,2.81480700,-0.03752461
21.00238565,2.80050500,-0.03352608
21.25238564,2.78774000,-0.02845103
21.50238564,2.77282200,-0.02276083
21.75238563,2.75067700,-0.01676304
22.00238562,2.72222500,-0.01091904
22.25238561,2.69469700,-0.00569021
22.50238561,2.67347400,-0.00153789
22.75238560,2.66194000,0.00123032
23.00238559,2.66040200,0.00230684
23.25238559,2.66593900,0.00215305
23.50238558,2.67347400,0.00076895
23.75238557,2.67593500,-0.00076895
24.00238556,2.67224400,-0.00215305
24.25238556,2.66747700,-0.00246063
24.50238555,2.66547700,-0.00123032
24.75238554,2.66870700,0.00169168
25.00238554,2.67701100,0.00630536
25.25238553,2.68808400,0.01230315
25.50238552,2.69808100,0.01906988
25.75238551,2.70161800,0.02583661
26.00238551,2.69900300,0.03183440
26.25238550,2.69715800,0.03629429
26.50238549,2.70084900,0.03875492
26.75238549,2.71253700,0.03906250
27.00238548,2.73222200,0.03706324
27.25238547,2.75682800,0.03321850
27.50238547,2.78097300,0.02798967
27.75238546,2.79804400,0.02214567
28.00238545,2.80696400,0.01584031
28.25238544,2.81280800,0.00938115
28.50238544,2.81911300,0.00307579
28.75238543,2.82818700,-0.00307579
29.00238542,2.83972100,-0.00891978
29.25238542,2.85156300,-0.01445620
29.50238541,2.85986700,-0.01983883
29.75238540,2.85894400,-0.02491388
30.00238539,2.84941000,-0.02968135
30.25238539,2.83741400,-0.03398745
30.50238538,2.82695600,-0.03767840
30.75238537,2.82065100,-0.04060039
31.00238537,2.81849800,-0.04275344
31.25238536,2.81788300,-0.04413754
31.50238535,2.81480700,-0.04490650
31.75238535,2.80373400,-0.04490650
32.00238534,2.78527900,-0.04413754
32.25238533,2.76590200,-0.04290723
32.50238532,2.75021500,-0.04060039
32.75238532,2.74114200,-0.03752461
33.00238531,2.73883500,-0.03337229
33.25238530,2.74052600,-0.02845103
33.50238530,2.74191100,-0.02276083
33.75238529,2.73683500,-0.01676304
34.00238528,2.72530100,-0.01091904
34.25238527,2.71361400,-0.00584400
34.50238527,2.70653900,-0.00169168
34.75238526,2.70669300,0.00138410
35.00238525,2.71438200,0.00292200
35.25238525,2.72668600,0.00338337
35.50238524,2.73898900,0.00307579
35.75238523,2.74498700,0.00230684
36.00238523,2.74406400,0.00123032
36.25238522,2.74191100,0.00046137
36.50238521,2.74252600,0.00000000
36.75238520,2.74852400,0.00000000
37.00238520,2.76005800,0.00046137
37.25238519,2.77420600,0.00123032
37.50238518,2.78697100,0.00230684
37.75238518,2.79204600,0.00307579
38.00238517,2.78943200,0.00338337
38.25238516,2.78512500,0.00292200
38.50238515,2.78312600,0.00138410
38.75238515,2.78635600,-0.00169168
39.00238514,2.79450700,-0.00584400
39.25238513,2.80527200,-0.01091904
39.50238513,2.81419200,-0.01676304
39.75238512,2.81496000,-0.02276083
40.00238511,2.80742500,-0.02845103
40.25238510,2.79712100,-0.03337229
40.50238510,2.78758600,-0.03752461
40.75238509,2.78128100,-0.04060039
41.00238508,2.77820500,-0.04290723
41.25238508,2.77589800,-0.04413754
41.50238507,2.77082300,-0.04490650
41.75238506,2.75805900,-0.04490650
42.00238506,2.73883500,-0.04413754
42.25238505,2.72053400,-0.04290723
42.50238504,2.70823100,-0.04060039
42.75238503,2.70530900,-0.03752461
43.00238503,2.71176800,-0.03337229
43.25238502,2.72437900,-0.02845103
43.50238501,2.73822000,-0.02276083
43.75238501,2.74575500,-0.01676304
44.00238500,2.74621700,-0.01107283
44.25238499,2.74421700,-0.00584400
44.50238498,2.74375600,-0.00169168
44.75238498,2.74683200,0.00138410
45.00238497,2.75375200,0.00353716
45.25238496,2.76190300,0.00476747
45.50238496,2.76790100,0.00538263
45.75238495,2.76620900,0.00538263
46.00238494,2.75759700,0.00476747
46.25238494,2.74883100,0.00369095
46.50238493,2.74437100,0.00153789
46.75238492,2.74714000,-0.00184547
47.00238491,2.75698200,-0.00645915
47.25238491,2.77066900,-0.01230315
47.50238490,2.78389500,-0.01906988
47.75238489,2.78989300,-0.02583661
48.00238489,2.78820100,-0.03183440
48.25238488,2.78466400,-0.03660187
48.50238487,2.78312600,-0.03890871
48.75238486,2.78620200,-0.03875492
49.00238486,2.79404500,-0.03583292
49.25238485,2.80404100,-0.03060408
49.50238484,2.81188500,-0.02352977
49.75238484,2.81188500,-0.01599409
50.00238483,2.80388800,-0.00891978
50.25238482,2.79389100,-0.00338337
50.50238482,2.78620200,-0.00030758
50.75238481,2.78328000,-0.00030758
51.00238480,2.78512500,-0.00338337
51.25238479,2.78958500,-0.00891978
51.50238479,2.79204600,-0.01599409
51.75238478,2.78697100,-0.02352977
52.00238477,2.77420600,-0.03060408
52.25238477,2.76005800,-0.03598671
52.50238476,2.74852400,-0.03890871
52.75238475,2.74252600,-0.03890871
53.00238474,2.74191100,-0.03598671
53.25238474,2.74406400,-0.03060408
53.50238473,2.74498700,-0.02352977
53.75238472,2.73898900,-0.01599409
54.00238472,2.72653200,-0.00891978
54.25238471,2.71422900,-0.00338337
54.50238470,2.70653900,-0.00030758
54.75238469,2.70653900,-0.00030758
55.00238469,2.71422900,-0.00338337
55.25238468,2.72653200,-0.00891978
55.50238467,2.73898900,-0.01599409
55.75238467,2.74498700,-0.02352977
56.00238466,2.74406400,-0.03060408
56.25238465,2.74191100,-0.03598671
56.50238465,2.74252600,-0.03890871
56.75238464,2.74852400,-0.03890871
57.00238463,2.76005800,-0.03598671
57.25238462,2.77420600,-0.03060408
57.50238462,2.78697100,-0.02352977
57.75238461,2.79204600,-0.01599409
58.00238460,2.78943200,-0.00891978
58.25238460,2.78512500,-0.00338337
58.50238459,2.78328000,-0.00030758
58.75238458,2.78620200,-0.00030758
59.00238457,2.79389100,-0.00338337
59.25238457,2.80388800,-0.00891978
59.50238456,2.81188500,-0.01599409
59.75238455,2.81188500,-0.02352977
60.00238455,2.80404100,-0.03060408
60.25238454,2.79404500,-0.03583292
60.50238453,2.78620200,-0.03875492
60.75238453,2.78312600,-0.03890871
61.00238452,2.78466400,-0.03660187
61.25238451,2.78820100,-0.03183440
61.50238450,2.78989300,-0.02583661
61.75238450,2.78389500,-0.01906988
62.00238449,2.77082300,-0.01230315
62.25238448,2.75698200,-0.00645915
62.50238448,2.74714000,-0.00169168
62.75238447,2.74421700,0.00138410
63.00238446,2.74821600,0.00307579
63.25238445,2.75636700,0.00353716
63.50238445,2.76405600,0.00307579
63.75238444,2.76482500,0.00230684
64.00238443,2.75852000,0.00123032
64.25238443,2.75067700,0.00046137
64.50238442,2.74544800,0.00000000
64.75238441,2.74544800,0.00000000
65.00238440,2.75067700,0.00046137
65.25238440,2.75852000,0.00123032
65.50238439,2.76482500,0.00230684
65.75238438,2.76405600,0.00307579
66.00238438,2.75636700,0.00338337
66.25238437,2.74821600,0.00292200
66.50238436,2.74421700,0.00138410
66.75238436,2.74714000,-0.00169168
67.00238435,2.75698200,-0.00584400
67.25238434,2.77082300,-0.01091904
67.50238433,2.78389500,-0.01676304
67.75238433,2.78989300,-0.02276083
68.00238432,2.78820100,-0.02845103
68.25238431,2.78466400,-0.03352608
68.50238431,2.78312600,-0.03752461
68.75238430,2.78604800,-0.04060039
69.00238429,2.79343000,-0.04229207
69.25238428,2.80265800,-0.04290723
69.50238428,2.80973200,-0.04259966
69.75238427,2.80880900,-0.04183071
70.00238426,2.80050500,-0.04075418
70.25238426,2.79112300,-0.03983144
70.50238425,2.78497200,-0.03921629
70.75238424,2.78466400,-0.03921629
71.00238424,2.79035400,-0.03983144
71.25238423,2.79912000,-0.04075418
71.50238422,2.80665600,-0.04183071
71.75238421,2.80665600,-0.04259966
72.00238421,2.79927400,-0.04290723
72.25238420,2.79050800,-0.04229207
72.50238419,2.78481800,-0.04060039
72.75238419,2.78481800,-0.03752461
73.00238418,2.79050800,-0.03352608
73.25238417,2.79927400,-0.02845103
73.50238416,2.80665600,-0.02276083
73.75238416,2.80665600,-0.01676304
74.00238415,2.79912000,-0.01091904
74.25238414,2.79035400,-0.00584400
74.50238414,2.78466400,-0.00169168
74.75238413,2.78497200,0.00138410
75.00238412,2.79112300,0.00292200
75.25238412,2.80050500,0.00338337
75.50238411,2.80880900,0.00307579
75.75238410,2.80973200,0.00230684
76.00238409,2.80265800,0.00123032
76.25238409,2.79343000,0.00046137
76.50238408,2.78604800,0.00000000
76.75238407,2.78312600,0.00000000
77.00238407,2.78466400,0.00046137
77.25238406,2.78820100,0.00123032
77.50238405,2.78989300,0.00230684
77.75238404,2.78389500,0.00307579
78.00238404,2.77082300,0.00338337
78.25238403,2.75698200,0.00292200
78.50238402,2.74714000,0.00138410
78.75238402,2.74421700,-0.00169168
79.00238401,2.74821600,-0.00584400
79.25238400,2.75636700,-0.01091904
79.50238399,2.76405600,-0.01676304
79.75238399,2.76482500,-0.02276083
80.00238398,2.75852000,-0.02845103
80.25238397,2.75067700,-0.03337229
80.50238397,2.74544800,-0.03752461
80.75238396,2.74544800,-0.04060039
81.00238395,2.75067700,-0.04290723
81.25238395,2.75852000,-0.04413754
81.50238394,2.76482500,-0.04490650
81.75238393,2.76405600,-0.04490650
82.00238392,2.75636700,-0.04413754
82.25238392,2.74821600,-0.04290723
82.50238391,2.74421700,-0.04060039
82.75238390,2.74714000,-0.03752461
83.00238390,2.75698200,-0.03337229
83.25238389,2.77082300,-0.02845103
83.50238388,2.78389500,-0.02276083
83.75238387,2.78989300,-0.01676304
84.00238387,2.78820100,-0.01107283
84.25238386,2.78466400,-0.00584400
84.50238385,2.78312600,-0.00169168
84.75238385,2.78604800,0.00138410
85.00238384,2.79343000,0.00353716
85.25238383,2.80265800,0.00476747
85.50238383,2.80973200,0.00538263
85.75238382,2.80880900,0.00538263
86.00238381,2.80050500,0.00476747
86.25238380,2.79097000,0.00369095
86.50238380,2.78481800,0.00153789
86.75238379,2.78481800,-0.00184547
87.00238378,2.79097000,-0.00645915
87.25238378,2.80050500,-0.01230315
87.50238377,2.80880900,-0.01906988
87.75238376,2.80973200,-0.02583661
88.00238375,2.80265800,-0.03183440
88.25238375,2.79343000,-0.03660187
88.50238374,2.78604800,-0.03890871
88.75238373,2.78312600,-0.03875492
89.00238373,2.78466400,-0.03583292
89.25238372,2.78820100,-0.03060408
89.50238371,2.78989300,-0.02352977
89.75238370,2.78389500,-0.01599409
90.00238370,2.77082300,-0.00891978
90.25238369,2.75698200,-0.00338337
90.50238368,2.74714000,-0.00030758
90.75238368,2.74421700,-0.00030758
