Time,Channel A,Channel B
(ns),(V),(V)

-50.47352731,0.00000000,-0.00030758
-50.22352731,0.00046137,-0.00276821
-49.97352732,0.00123032,-0.00753568
-49.72352733,0.00230684,-0.01368725
-49.47352734,0.00307579,-0.02045399
-49.22352734,0.00353716,-0.02706693
-48.97352735,0.00307579,-0.03291092
-48.72352736,0.00138410,-0.03752461
-48.47352736,-0.00169168,-0.04060039
-48.22352737,-0.00645915,-0.04229207
-47.97352738,-0.01230315,-0.04290723
-47.72352739,-0.01906988,-0.04259966
-47.47352739,-0.02583661,-0.04183071
-47.22352740,-0.03183440,-0.04075418
-46.97352741,-0.03644808,-0.03983144
-46.72352741,-0.03890871,-0.03921629
-46.47352742,-0.03890871,-0.03921629
-46.22352743,-0.03644808,-0.03983144
-45.97352743,-0.03183440,-0.04075418
-45.72352744,-0.02583661,-0.04183071
-45.47352745,-0.01906988,-0.04259966
-45.22352746,-0.01230315,-0.04290723
-44.97352746,-0.00645915,-0.04229207
-44.72352747,-0.00169168,-0.04060039
-44.47352748,0.00138410,-0.03752461
-44.22352748,0.00307579,-0.03291092
-43.97352749,0.00353716,-0.02706693
-43.72352750,0.00307579,-0.02045399
-43.47352751,0.00230684,-0.01368725
-43.22352751,0.00138410,-0.00753568
-42.97352752,0.00061516,-0.00276821
-42.72352753,0.00015379,-0.00030758
-42.47352753,0.00000000,-0.00046137
-42.22352754,-0.00015379,-0.00338337
-41.97352755,0.00000000,-0.00891978
-41.72352755,0.00000000,-0.01599409
-41.47352756,0.00000000,-0.02352977
-41.22352757,0.00000000,-0.03060408
-40.97352758,0.00000000,-0.03598671
-40.72352758,0.00000000,-0.03890871
-40.47352759,0.00000000,-0.03890871
-40.22352760,0.00000000,-0.03598671
-39.97352760,0.00000000,-0.03060408
-39.72352761,0.00000000,-0.02352977
-39.47352762,0.00000000,-0.01599409
-39.22352763,0.00000000,-0.00891978
-38.97352763,0.00000000,-0.00338337
-38.72352764,0.00000000,-0.00030758
-38.47352765,0.00000000,-0.00030758
-38.22352765,0.00000000,-0.00338337
-37.97352766,0.00000000,-0.00891978
-37.72352767,0.00000000,-0.01599409
-37.47352767,0.00000000,-0.02352977
-37.22352768,0.00000000,-0.03060408
-36.97352769,-0.00015379,-0.03598671
-36.72352770,0.00000000,-0.03890871
-36.47352770,0.00015379,-0.03890871
-36.22352771,0.00061516,-0.03598671
-35.97352772,0.00138410,-0.03060408
-35.72352772,0.00230684,-0.02352977
-35.47352773,0.00307579,-0.01599409
-35.22352774,0.00338337,-0.00891978
-34.97352775,0.00292200,-0.00338337
-34.72352775,0.00138410,-0.00046137
-34.47352776,-0.00169168,-0.00030758
-34.22352777,-0.00584400,-0.00276821
-33.97352777,-0.01091904,-0.00753568
-33.72352778,-0.01676304,-0.01368725
-33.47352779,-0.02276083,-0.02045399
-33.22352780,-0.02845103,-0.02706693
-32.97352780,-0.03352608,-0.03291092
-32.72352781,-0.03752461,-0.03752461
-32.47352782,-0.04060039,-0.04060039
-32.22352782,-0.04229207,-0.04229207
-31.97352783,-0.04290723,-0.04290723
-31.72352784,-0.04259966,-0.04259966
-31.47352784,-0.04183071,-0.04183071
-31.22352785,-0.04075418,-0.04075418
-30.97352786,-0.03983144,-0.03983144
-30.72352787,-0.03921629,-0.03921629
-30.47352787,-0.03921629,-0.03921629
-30.22352788,-0.03983144,-0.03983144
-29.97352789,-0.04075418,-0.04075418
-29.72352789,-0.04183071,-0.04183071
-29.47352790,-0.04259966,-0.04259966
-29.22352791,-0.04290723,-0.04290723
-28.97352792,-0.04229207,-0.04229207
-28.72352792,-0.04060039,-0.04060039
-28.47352793,-0.03752461,-0.03752461
-28.22352794,-0.03352608,-0.03352608
-27.97352794,-0.02845103,-0.02845103
-27.72352795,-0.02276083,-0.02276083
-27.47352796,-0.01676304,-0.01676304
-27.22352796,-0.01091904,-0.01107283
-26.97352797,-0.00584400,-0.00584400
-26.72352798,-0.00169168,-0.00169168
-26.47352799,0.00138410,0.00138410
-26.22352799,0.00292200,0.00353716
-25.97352800,0.00338337,0.00476747
-25.72352801,0.00307579,0.00538263
-25.47352801,0.00230684,0.00538263
-25.22352802,0.00138410,0.00476747
-24.97352803,0.00061516,0.00369095
-24.72352804,0.00015379,0.00153789
-24.47352804,0.00000000,-0.00184547
-24.22352805,-0.00015379,-0.00645915
-23.97352806,0.00000000,-0.01230315
-23.72352806,0.00000000,-0.01906988
-23.47352807,0.00000000,-0.02583661
-23.22352808,0.00000000,-0.03183440
-22.97352809,0.00000000,-0.03660187
-22.72352809,0.00000000,-0.03890871
-22.47352810,0.00000000,-0.03875492
-22.22352811,0.00000000,-0.03583292
-21.97352811,0.00000000,-0.03060408
-21.72352812,0.00000000,-0.02352977
-21.47352813,0.00000000,-0.01599409
-21.22352813,0.00000000,-0.00891978
-20.97352814,-0.00015379,-0.00338337
-20.72352815,0.00000000,-0.00030758
-20.47352816,0.00015379,-0.00030758
-20.22352816,0.00061516,-0.00338337
-19.97352817,0.00138410,-0.00891978
-19.72352818,0.00230684,-0.01599409
-19.47352818,0.00307579,-0.02352977
-19.22352819,0.00353716,-0.03060408
-18.97352820,0.00307579,-0.03598671
-18.72352821,0.00138410,-0.03890871
-18.47352821,-0.00169168,-0.03890871
-18.22352822,-0.00645915,-0.03598671
-17.97352823,-0.01230315,-0.03060408
-17.72352823,-0.01906988,-0.02352977
-17.47352824,-0.02583661,-0.01599409
-17.22352825,-0.03183440,-0.00891978
-16.97352825,-0.03644808,-0.00338337
-16.72352826,-0.03890871,-0.00046137
-16.47352827,-0.03890871,-0.00030758
-16.22352828,-0.03644808,-0.00276821
-15.97352828,-0.03183440,-0.00753568
-15.72352829,-0.02583661,-0.01368725
-15.47352830,-0.01906988,-0.02045399
-15.22352830,-0.01230315,-0.02706693
-14.97352831,-0.00645915,-0.03275714
-14.72352832,-0.00169168,-0.03737082
-14.47352833,0.00138410,-0.04075418
-14.22352833,0.00307579,-0.04290723
-13.97352834,0.00353716,-0.04429134
-13.72352835,0.00307579,-0.04490650
-13.47352835,0.00230684,-0.04490650
-13.22352836,0.00138410,-0.04413754
-12.97352837,0.00061516,-0.04290723
-12.72352837,0.00015379,-0.04060039
-12.47352838,0.00000000,-0.03752461
-12.22352839,-0.00015379,-0.03337229
-11.97352840,0.00000000,-0.02845103
-11.72352840,0.00000000,-0.02276083
-11.47352841,0.00000000,-0.01676304
-11.22352842,0.00000000,-0.01091904
-10.97352842,0.00000000,-0.00584400
-10.72352843,0.00000000,-0.00169168
-10.47352844,0.00000000,0.00138410
-10.22352845,0.00000000,0.00292200
-9.97352845,0.00000000,0.00338337
-9.72352846,0.00000000,0.00307579
-9.47352847,0.00000000,0.00230684
-9.22352847,0.00000000,0.00123032
-8.97352848,0.00000000,0.00046137
-8.72352849,0.00000000,0.00000000
-8.47352850,0.00000000,0.00000000
-8.22352850,0.00000000,0.00046137
-7.97352851,0.00000000,0.00123032
-7.72352852,0.00000000,0.00230684
-7.47352852,0.00000000,0.00307579
-7.22352853,0.00015379,0.00353716
-6.97352854,0.00046137,0.00307579
-6.72352854,0.00030758,0.00138410
-6.47352855,-0.00061516,-0.00169168
-6.22352856,-0.00292200,-0.00645915
-5.97352857,-0.00661294,-0.01230315
-5.72352857,-0.01122662,-0.01906988
-5.47352858,-0.01537894,-0.02583661
-5.22352859,-0.01614788,-0.03183440
-4.97352859,-0.01199557,-0.03660187
-4.72352860,-0.00415231,-0.03890871
-4.47352861,0.00369095,-0.03875492
-4.22352862,0.00845842,-0.03583292
-3.97352862,0.00845842,-0.03060408
-3.72352863,0.00553642,-0.02352977
-3.47352864,0.00615158,-0.01599409
-3.22352864,0.02276083,-0.00891978
-2.97352865,0.06751353,-0.00338337
-2.72352866,0.14502340,-0.00030758
-2.47352866,0.25436760,-0.00030758
-2.22352867,0.38954850,-0.00338337
-1.97352868,0.54195370,-0.00891978
-1.72352869,0.70435530,-0.01599409
-1.47352869,0.87260090,-0.02352977
-1.22352870,1.05099700,-0.03060408
-0.97352871,1.24554000,-0.03598671
-0.72352871,1.45700000,-0.03890871
-0.47352872,1.68291700,-0.03890871
-0.22352873,1.91744600,-0.03598671
0.02647126,2.15289700,-0.03060408
0.27647126,2.38158200,-0.02352977
0.52647125,2.59750200,-0.01599409
0.77647124,2.80096600,-0.00891978
1.02647124,2.99320200,-0.00338337
1.27647123,3.17175200,-0.00046137
1.52647122,3.33215400,-0.00030758
1.77647121,3.46964200,-0.00276821
2.02647121,3.57975500,-0.00753568
2.27647120,3.66049500,-0.01368725
2.52647119,3.71278300,-0.02045399
2.77647119,3.74338700,-0.02706693
3.02647118,3.75999600,-0.03291092
3.27647117,3.76553300,-0.03752461
3.52647117,3.75999600,-0.04044660
3.77647116,3.74061900,-0.04167692
4.02647115,3.70417100,-0.04152313
4.27647114,3.64788400,-0.04029281
4.52647114,3.57129700,-0.03875492
4.77647113,3.48056100,-0.03721703
5.02647112,3.38628800,-0.03690945
5.27647112,3.29616800,-0.03798597
5.52647111,3.21542800,-0.04090797
5.77647110,3.14483900,-0.04567545
6.02647109,3.08117000,-0.05167323
6.27647109,3.01934700,-0.05859375
6.52647108,2.95198700,-0.06536049
6.77647107,2.87755300,-0.07120448
7.02647107,2.80327300,-0.07551058
7.27647106,2.73529800,-0.07797121
7.52647105,2.67931800,-0.07843257
7.77647105,2.63794900,-0.07689469
8.02647104,2.60919000,-0.07397269
8.27647103,2.58827500,-0.06982037
8.52647102,2.56597500,-0.06474533
8.77647102,2.53814000,-0.05874754
9.02647101,2.50892000,-0.05167323
9.27647100,2.48185300,-0.04367618
9.52647100,2.46047600,-0.03444882
9.77647099,2.44617400,-0.02399114
10.02647098,2.43756200,-0.01261073
10.27647097,2.43171700,-0.00061516
10.52647097,2.42218300,0.01122662
10.77647096,2.40880300,0.02214567
11.02647095,2.39726900,0.03106545
11.27647095,2.39157900,0.03737082
11.52647094,2.39434700,0.04029281
11.77647093,2.40542000,0.03983144
12.02647093,2.42187500,0.03660187
12.27647092,2.43986800,0.03106545
12.52647091,2.45355600,0.02429872
12.77647090,2.46355200,0.01707062
13.02647090,2.47631600,0.00999631
13.27647089,2.49615500,0.00322958
13.52647088,2.52537500,-0.00307579
13.77647088,2.56336100,-0.00891978
14.02647087,2.60657600,-0.01445620
14.27647086,2.64994500,-0.01983883
14.52647085,2.68654600,-0.02491388
14.77647085,2.71592000,-0.02983514
15.02647084,2.74268000,-0.03414124
15.27647083,2.76974700,-0.03767840
15.52647083,2.79865900,-0.04044660
15.77647082,2.82834000,-0.04213829
16.02647081,2.85617600,-0.04290723
16.27647080,2.87847500,-0.04259966
16.52647080,2.89047100,-0.04183071
16.77647079,2.89370100,-0.04075418
17.02647078,2.89477700,-0.03983144
17.27647078,2.89816100,-0.03921629
17.52647077,2.90631200,-0.03921629
17.77647076,2.91846100,-0.03983144
18.02647076,2.93153300,-0.04075418
18.27647075,2.94106800,-0.04183071
18.52647074,2.94106800,-0.04259966
18.77647073,2.93168700,-0.04290723
19.02647073,2.91876800,-0.04229207
19.27647072,2.90661900,-0.04060039
19.52647071,2.89769900,-0.03752461
19.77647071,2.89247000,-0.03352608
20.02647070,2.88847200,-0.02845103
20.27647069,2.88155100,-0.02276083
20.52647068,2.86617300,-0.01676304
20.77647068,2.84248900,-0.01091904
21.02647067,2.81680600,-0.00584400
21.27647066,2.79358400,-0.00169168
21.52647066,2.77589800,0.00138410
21.77647065,2.76421000,0.00292200
22.02647064,2.75590500,0.00338337
22.27647064,2.74698600,0.00307579
22.52647063,2.73160700,0.00230684
22.77647062,2.70992300,0.00138410
23.02647061,2.68839200,0.00061516
23.27647061,2.67178300,0.00015379
23.52647060,2.66317000,0.00000000
23.77647059,2.66286300,-0.00015379
24.02647059,2.66793800,0.00000000
24.27647058,2.67439700,0.00000000
24.52647057,2.67516600,0.00000000
24.77647056,2.67009100,0.00000000
25.02647056,2.66501600,-0.00015379
25.27647055,2.66424700,0.00000000
25.52647054,2.67039900,0.00015379
25.77647054,2.68393200,0.00061516
26.02647053,2.70161800,0.00138410
26.27647052,2.71930400,0.00230684
26.52647051,2.73037600,0.00307579
26.77647051,2.73437500,0.00338337
27.02647050,2.73668200,0.00292200
27.27647049,2.74098800,0.00123032
27.52647049,2.74975400,-0.00153789
27.77647048,2.76236500,-0.00522884
28.02647047,2.77636000,-0.00968873
28.27647047,2.78774000,-0.01460999
28.52647046,2.79127700,-0.01968504
28.77647045,2.78727900,-0.02491388
29.02647044,2.78266500,-0.03045030
29.27647044,2.78189600,-0.03614050
29.52647043,2.78804800,-0.04229207
29.77647042,2.80081200,-0.04859744
30.02647042,2.81757500,-0.05521039
30.27647041,2.83326100,-0.06166954
30.52647040,2.84079700,-0.06751353
30.77647039,2.83925900,-0.07258858
31.02647039,2.83356900,-0.07627953
31.27647038,2.82649500,-0.07812500
31.52647037,2.82018900,-0.07812500
31.77647037,2.81465300,-0.07627953
32.02647036,2.80773300,-0.07258858
32.27647035,2.79666000,-0.06751353
32.52647035,2.77712800,-0.06166954
32.77647034,2.75113800,-0.05521039
33.02647033,2.72699300,-0.04859744
33.27647032,2.71007600,-0.04229207
33.52647032,2.70392500,-0.03614050
33.77647031,2.70869200,-0.03045030
34.02647030,2.72099500,-0.02491388
34.27647030,2.73514400,-0.01968504
34.52647029,2.74360200,-0.01460999
34.77647028,2.74483300,-0.00968873
35.02647027,2.74375600,-0.00538263
35.27647027,2.74360200,-0.00153789
35.52647026,2.74698600,0.00138410
35.77647025,2.75375200,0.00353716
36.02647025,2.76205700,0.00476747
36.27647024,2.76790100,0.00538263
36.52647023,2.76620900,0.00538263
36.77647023,2.75759700,0.00476747
37.02647022,2.74867700,0.00353716
37.27647021,2.74437100,0.00138410
37.52647020,2.74729300,-0.00169168
37.77647020,2.75744300,-0.00584400
38.02647019,2.77205300,-0.01107283
38.27647018,2.78604800,-0.01676304
38.52647018,2.79296900,-0.02276083
38.77647017,2.79158500,-0.02845103
39.02647016,2.78758600,-0.03337229
39.27647015,2.78451000,-0.03752461
39.52647015,2.78451000,-0.04060039
39.77647014,2.78758600,-0.04290723
40.02647013,2.79158500,-0.04413754
40.27647013,2.79296900,-0.04490650
40.52647012,2.78604800,-0.04490650
40.77647011,2.77205300,-0.04413754
41.02647010,2.75759700,-0.04290723
41.27647010,2.74729300,-0.04060039
41.52647009,2.74421700,-0.03752461
41.77647008,2.74821600,-0.03337229
42.02647008,2.75636700,-0.02845103
42.27647007,2.76405600,-0.02276083
42.52647006,2.76482500,-0.01676304
42.77647006,2.75852000,-0.01091904
43.02647005,2.75067700,-0.00584400
43.27647004,2.74544800,-0.00169168
43.52647003,2.74544800,0.00138410
43.77647003,2.75067700,0.00292200
44.02647002,2.75852000,0.00338337
44.27647001,2.76482500,0.00307579
44.52647001,2.76405600,0.00230684
44.77647000,2.75636700,0.00123032
45.02646999,2.74821600,0.00046137
45.27646998,2.74421700,0.00000000
45.52646998,2.74714000,0.00000000
45.77646997,2.75698200,0.00046137
46.02646996,2.77082300,0.00123032
46.27646996,2.78389500,0.00230684
46.52646995,2.78989300,0.00307579
46.77646994,2.78820100,0.00338337
47.02646994,2.78466400,0.00292200
47.27646993,2.78312600,0.00138410
47.52646992,2.78620200,-0.00169168
47.77646991,2.79404500,-0.00584400
48.02646991,2.80404100,-0.01091904
48.27646990,2.81188500,-0.01676304
48.52646989,2.81188500,-0.02276083
48.77646989,2.80388800,-0.02845103
49.02646988,2.79389100,-0.03337229
49.27646987,2.78620200,-0.03752461
49.52646986,2.78328000,-0.04060039
49.77646986,2.78512500,-0.04290723
50.02646985,2.78958500,-0.04413754
50.27646984,2.79204600,-0.04490650
50.52646984,2.78697100,-0.04490650
50.77646983,2.77420600,-0.04413754
51.02646982,2.76005800,-0.04290723
51.27646982,2.74852400,-0.04060039
51.52646981,2.74252600,-0.03752461
51.77646980,2.74191100,-0.03337229
52.02646979,2.74406400,-0.02845103
52.27646979,2.74498700,-0.02276083
52.52646978,2.73898900,-0.01676304
52.77646977,2.72653200,-0.01091904
53.02646977,2.71422900,-0.00584400
53.27646976,2.70653900,-0.00169168
53.52646975,2.70669300,0.00138410
53.77646974,2.71484400,0.00292200
54.02646974,2.72791600,0.00338337
54.27646973,2.74129500,0.00307579
54.52646972,2.74806200,0.00230684
54.77646972,2.74744700,0.00123032
55.02646971,2.74483300,0.00046137
55.27646970,2.74391000,0.00000000
55.52646969,2.74683200,0.00000000
55.77646969,2.75359900,0.00046137
56.02646968,2.76190300,0.00123032
56.27646967,2.76790100,0.00230684
56.52646967,2.76620900,0.00307579
56.77646966,2.75759700,0.00353716
57.02646965,2.74883100,0.00307579
57.27646965,2.74437100,0.00138410
57.52646964,2.74714000,-0.00169168
57.77646963,2.75698200,-0.00645915
58.02646962,2.77066900,-0.01230315
58.27646962,2.78389500,-0.01906988
58.52646961,2.78989300,-0.02583661
58.77646960,2.78820100,-0.03183440
59.02646960,2.78466400,-0.03660187
59.27646959,2.78312600,-0.03890871
59.52646958,2.78620200,-0.03875492
59.77646957,2.79404500,-0.03583292
60.02646957,2.80404100,-0.03060408
60.27646956,2.81188500,-0.02352977
60.52646955,2.81188500,-0.01599409
60.77646955,2.80404100,-0.00891978
61.02646954,2.79404500,-0.00338337
61.27646953,2.78620200,-0.00030758
61.52646953,2.78312600,-0.00030758
61.77646952,2.78466400,-0.00338337
62.02646951,2.78820100,-0.00891978
62.27646950,2.78989300,-0.01599409
62.52646950,2.78389500,-0.02352977
62.77646949,2.77082300,-0.03060408
63.02646948,2.75698200,-0.03598671
63.27646948,2.74714000,-0.03890871
63.52646947,2.74421700,-0.03890871
63.77646946,2.74821600,-0.03598671
64.02646945,2.75636700,-0.03060408
64.27646945,2.76405600,-0.02352977
64.52646944,2.76482500,-0.01599409
64.77646943,2.75852000,-0.00891978
65.02646943,2.75067700,-0.00338337
65.27646942,2.74544800,-0.00046137
65.52646941,2.74560200,-0.00030758
65.77646940,2.75129200,-0.00276821
66.02646940,2.75975000,-0.00753568
66.27646939,2.76713200,-0.01368725
66.52646938,2.76713200,-0.02045399
66.77646938,2.75975000,-0.02706693
67.02646937,2.75129200,-0.03291092
67.27646936,2.74560200,-0.03752461
67.52646936,2.74544800,-0.04060039
67.77646935,2.75067700,-0.04229207
68.02646934,2.75852000,-0.04290723
68.27646933,2.76482500,-0.04259966
68.52646933,2.76405600,-0.04183071
68.77646932,2.75636700,-0.04075418
69.02646931,2.74821600,-0.03983144
69.27646931,2.74421700,-0.03921629
69.52646930,2.74729300,-0.03921629
69.77646929,2.75759700,-0.03983144
70.02646928,2.77205300,-0.04075418
70.27646928,2.78604800,-0.04183071
70.52646927,2.79296900,-0.04259966
70.77646926,2.79173900,-0.04290723
71.02646926,2.78774000,-0.04229207
71.27646925,2.78451000,-0.04060039
71.52646924,2.78435700,-0.03752461
71.77646924,2.78712500,-0.03352608
72.02646923,2.79035400,-0.02845103
72.27646922,2.79066200,-0.02276083
72.52646921,2.78297200,-0.01676304
72.77646921,2.76867000,-0.01091904
73.02646920,2.75452100,-0.00584400
73.27646919,2.74590900,-0.00169168
73.52646919,2.74590900,0.00138410
73.77646918,2.75452100,0.00292200
74.02646917,2.76867000,0.00338337
74.27646916,2.78297200,0.00307579
74.52646916,2.79066200,0.00230684
74.77646915,2.79035400,0.00138410
75.02646914,2.78712500,0.00061516
75.27646914,2.78435700,0.00015379
75.52646913,2.78451000,0.00000000
75.77646912,2.78774000,-0.00015379
76.02646912,2.79173900,0.00000000
76.27646911,2.79296900,0.00000000
76.52646910,2.78604800,0.00000000
76.77646909,2.77205300,0.00000000
77.02646909,2.75759700,0.00000000
77.27646908,2.74729300,0.00000000
77.52646907,2.74421700,0.00000000
77.77646907,2.74821600,0.00000000
78.02646906,2.75636700,0.00000000
78.27646905,2.76405600,0.00000000
78.52646904,2.76482500,0.00000000
78.77646904,2.75852000,0.00000000
79.02646903,2.75067700,-0.00015379
79.27646902,2.74544800,0.00000000
79.52646902,2.74560200,0.00015379
79.77646901,2.75129200,0.00061516
80.02646900,2.75975000,0.00138410
80.27646899,2.76713200,0.00230684
80.52646899,2.76713200,0.00307579
80.77646898,2.75975000,0.00353716
81.02646897,2.75113800,0.00307579
81.27646897,2.74560200,0.00138410
81.52646896,2.74560200,-0.00169168
81.77646895,2.75113800,-0.00645915
82.02646895,2.75975000,-0.01230315
82.27646894,2.76713200,-0.01906988
82.52646893,2.76713200,-0.02583661
82.77646892,2.75975000,-0.03183440
83.02646892,2.75129200,-0.03644808
83.27646891,2.74560200,-0.03890871
83.52646890,2.74544800,-0.03890871
83.77646890,2.75067700,-0.03644808
84.02646889,2.75852000,-0.03183440
84.27646888,2.76482500,-0.02583661
84.52646887,2.76405600,-0.01906988
84.77646887,2.75636700,-0.01230315
85.02646886,2.74821600,-0.00645915
85.27646885,2.74421700,-0.00184547
85.52646885,2.74729300,0.00153789
85.77646884,2.75759700,0.00369095
86.02646883,2.77205300,0.00476747
86.27646883,2.78604800,0.00538263
86.52646882,2.79296900,0.00538263
86.77646881,2.79158500,0.00476747
87.02646880,2.78758600,0.00369095
87.27646880,2.78451000,0.00153789
87.52646879,2.78451000,-0.00184547
87.77646878,2.78758600,-0.00645915
88.02646878,2.79158500,-0.01230315
88.27646877,2.79296900,-0.01906988
88.52646876,2.78604800,-0.02583661
88.77646875,2.77205300,-0.03183440
89.02646875,2.75759700,-0.03660187
89.27646874,2.74729300,-0.03890871
89.52646873,2.74421700,-0.03875492
89.77646873,2.74821600,-0.03583292
90.02646872,2.75636700,-0.03060408
90.27646871,2.76405600,-0.02352977
90.52646870,2.76482500,-0.01599409
90.77646870,2.75852000,-0.00891978
91.02646869,2.75067700,-0.00338337
91.27646868,2.74544800,-0.00046137
